Spectrometer Data
EN
------------------------------
Saving Time:Wed, Jan 21, 2026 12:38:37
Device Name:Aurora 4000
Version Info:V9_84
Serial Number:220120190816098402001100
Integral Time(æs):5000
Avg Count:1
Smoothness:0
Data Type:(0 0)Wavelength-Original Spectreum
X-Axis Unit:nm
Y-Axis Unit:counts
Pixel Count:3482
Reserve0:250
Other Description:
+++++Begin Spectral Data+++++
200.149	172.000
200.421	177.000
200.693	176.000
200.966	176.000
201.238	174.000
201.510	175.000
201.782	177.000
202.054	174.000
202.326	175.000
202.598	175.000
202.870	174.000
203.142	171.000
203.414	172.000
203.686	174.000
203.958	178.000
204.230	176.000
204.502	175.000
204.774	177.000
205.046	173.000
205.318	177.000
205.590	178.000
205.861	174.000
206.133	176.000
206.405	176.000
206.677	174.000
206.949	175.000
207.221	174.000
207.493	174.000
207.765	176.000
208.037	175.000
208.308	181.000
208.580	174.000
208.852	176.000
209.124	174.000
209.396	173.000
209.668	176.000
209.939	176.000
210.211	174.000
210.483	174.000
210.755	176.000
211.027	175.000
211.298	177.000
211.570	174.000
211.842	175.000
212.114	178.000
212.385	176.000
212.657	175.000
212.929	175.000
213.200	176.000
213.472	177.000
213.744	175.000
214.016	174.000
214.287	176.000
214.559	176.000
214.831	175.000
215.102	177.000
215.374	174.000
215.645	175.000
215.917	176.000
216.189	176.000
216.460	174.000
216.732	176.000
217.004	174.000
217.275	176.000
217.547	175.000
217.818	176.000
218.090	175.000
218.361	176.000
218.633	176.000
218.904	178.000
219.176	177.000
219.448	176.000
219.719	177.000
219.991	177.000
220.262	177.000
220.534	174.000
220.805	176.000
221.076	177.000
221.348	180.000
221.619	175.000
221.891	177.000
222.162	174.000
222.434	176.000
222.705	174.000
222.977	176.000
223.248	178.000
223.519	175.000
223.791	175.000
224.062	177.000
224.333	175.000
224.605	176.000
224.876	173.000
225.148	174.000
225.419	174.000
225.690	176.000
225.962	176.000
226.233	176.000
226.504	176.000
226.775	178.000
227.047	178.000
227.318	176.000
227.589	175.000
227.861	176.000
228.132	173.000
228.403	177.000
228.674	178.000
228.946	176.000
229.217	175.000
229.488	178.000
229.759	175.000
230.030	178.000
230.302	177.000
230.573	176.000
230.844	176.000
231.115	177.000
231.386	176.000
231.657	177.000
231.929	176.000
232.200	178.000
232.471	174.000
232.742	176.000
233.013	178.000
233.284	179.000
233.555	178.000
233.826	178.000
234.097	179.000
234.369	177.000
234.640	177.000
234.911	175.000
235.182	176.000
235.453	176.000
235.724	177.000
235.995	174.000
236.266	178.000
236.537	176.000
236.808	175.000
237.079	178.000
237.350	175.000
237.621	176.000
237.892	177.000
238.163	178.000
238.434	178.000
238.705	174.000
238.975	180.000
239.246	175.000
239.517	177.000
239.788	176.000
240.059	176.000
240.330	177.000
240.601	178.000
240.872	176.000
241.143	177.000
241.413	177.000
241.684	177.000
241.955	176.000
242.226	175.000
242.497	176.000
242.768	177.000
243.038	177.000
243.309	175.000
243.580	174.000
243.851	174.000
244.122	175.000
244.392	175.000
244.663	175.000
244.934	177.000
245.205	173.000
245.475	177.000
245.746	177.000
246.017	177.000
246.288	177.000
246.558	177.000
246.829	178.000
247.100	175.000
247.370	175.000
247.641	178.000
247.912	177.000
248.182	174.000
248.453	177.000
248.724	177.000
248.994	176.000
249.265	177.000
249.535	173.000
249.806	178.000
250.077	173.000
250.347	176.000
250.618	176.000
250.888	177.000
251.159	177.000
251.430	176.000
251.700	176.000
251.971	176.000
252.241	179.000
252.512	178.000
252.782	177.000
253.053	176.000
253.323	177.000
253.594	178.000
253.864	175.000
254.135	176.000
254.405	174.000
254.676	178.000
254.946	177.000
255.216	175.000
255.487	175.000
255.757	178.000
256.028	174.000
256.298	175.000
256.569	177.000
256.839	177.000
257.109	177.000
257.380	179.000
257.650	179.000
257.920	174.000
258.191	175.000
258.461	177.000
258.731	175.000
259.002	177.000
259.272	177.000
259.542	178.000
259.813	175.000
260.083	176.000
260.353	178.000
260.624	176.000
260.894	179.000
261.164	175.000
261.434	175.000
261.705	177.000
261.975	178.000
262.245	178.000
262.515	177.000
262.786	179.000
263.056	175.000
263.326	177.000
263.596	174.000
263.866	177.000
264.137	177.000
264.407	176.000
264.677	173.000
264.947	177.000
265.217	177.000
265.487	174.000
265.757	177.000
266.027	174.000
266.298	179.000
266.568	175.000
266.838	175.000
267.108	174.000
267.378	178.000
267.648	180.000
267.918	176.000
268.188	176.000
268.458	175.000
268.728	174.000
268.998	178.000
269.268	175.000
269.538	174.000
269.808	178.000
270.078	178.000
270.348	175.000
270.618	177.000
270.888	177.000
271.158	176.000
271.428	176.000
271.698	179.000
271.968	174.000
272.238	174.000
272.508	176.000
272.778	175.000
273.048	175.000
273.318	176.000
273.587	176.000
273.857	176.000
274.127	177.000
274.397	176.000
274.667	174.000
274.937	177.000
275.207	174.000
275.476	178.000
275.746	175.000
276.016	176.000
276.286	175.000
276.556	176.000
276.826	175.000
277.095	176.000
277.365	179.000
277.635	172.000
277.905	173.000
278.174	176.000
278.444	176.000
278.714	176.000
278.984	175.000
279.253	175.000
279.523	176.000
279.793	174.000
280.062	174.000
280.332	175.000
280.602	176.000
280.871	173.000
281.141	175.000
281.411	177.000
281.680	177.000
281.950	174.000
282.220	174.000
282.489	177.000
282.759	177.000
283.029	177.000
283.298	176.000
283.568	179.000
283.837	175.000
284.107	173.000
284.376	178.000
284.646	174.000
284.916	174.000
285.185	178.000
285.455	173.000
285.724	177.000
285.994	173.000
286.263	178.000
286.533	175.000
286.802	178.000
287.072	176.000
287.341	175.000
287.611	175.000
287.880	175.000
288.149	175.000
288.419	175.000
288.688	176.000
288.958	176.000
289.227	175.000
289.497	177.000
289.766	173.000
290.035	174.000
290.305	173.000
290.574	175.000
290.844	175.000
291.113	177.000
291.382	173.000
291.652	178.000
291.921	174.000
292.190	174.000
292.460	176.000
292.729	176.000
292.998	177.000
293.268	175.000
293.537	175.000
293.806	177.000
294.075	173.000
294.345	175.000
294.614	175.000
294.883	174.000
295.152	176.000
295.422	177.000
295.691	174.000
295.960	175.000
296.229	174.000
296.498	174.000
296.768	174.000
297.037	174.000
297.306	175.000
297.575	174.000
297.844	173.000
298.114	174.000
298.383	174.000
298.652	174.000
298.921	176.000
299.190	178.000
299.459	172.000
299.728	171.000
299.997	174.000
300.266	176.000
300.536	177.000
300.805	178.000
301.074	174.000
301.343	174.000
301.612	174.000
301.881	174.000
302.150	175.000
302.419	178.000
302.688	174.000
302.957	174.000
303.226	175.000
303.495	177.000
303.764	175.000
304.033	176.000
304.302	177.000
304.571	172.000
304.840	174.000
305.109	176.000
305.378	176.000
305.646	174.000
305.915	174.000
306.184	177.000
306.453	174.000
306.722	177.000
306.991	174.000
307.260	175.000
307.529	176.000
307.798	174.000
308.066	176.000
308.335	171.000
308.604	173.000
308.873	173.000
309.142	174.000
309.411	176.000
309.679	174.000
309.948	174.000
310.217	174.000
310.486	175.000
310.755	175.000
311.023	173.000
311.292	175.000
311.561	176.000
311.830	175.000
312.098	176.000
312.367	172.000
312.636	174.000
312.904	172.000
313.173	176.000
313.442	172.000
313.711	176.000
313.979	177.000
314.248	173.000
314.517	176.000
314.785	175.000
315.054	174.000
315.322	173.000
315.591	171.000
315.860	174.000
316.128	173.000
316.397	172.000
316.665	176.000
316.934	175.000
317.203	174.000
317.471	174.000
317.740	171.000
318.008	175.000
318.277	174.000
318.545	172.000
318.814	175.000
319.082	176.000
319.351	173.000
319.619	174.000
319.888	175.000
320.156	174.000
320.425	175.000
320.693	175.000
320.962	175.000
321.230	173.000
321.499	174.000
321.767	174.000
322.036	174.000
322.304	175.000
322.573	174.000
322.841	173.000
323.109	174.000
323.378	175.000
323.646	172.000
323.914	175.000
324.183	171.000
324.451	173.000
324.720	175.000
324.988	173.000
325.256	171.000
325.525	173.000
325.793	173.000
326.061	175.000
326.330	175.000
326.598	175.000
326.866	174.000
327.134	172.000
327.403	172.000
327.671	172.000
327.939	175.000
328.207	174.000
328.476	174.000
328.744	171.000
329.012	175.000
329.280	176.000
329.549	173.000
329.817	175.000
330.085	174.000
330.353	172.000
330.621	171.000
330.889	174.000
331.158	175.000
331.426	172.000
331.694	175.000
331.962	173.000
332.230	174.000
332.498	173.000
332.766	173.000
333.035	173.000
333.303	174.000
333.571	174.000
333.839	173.000
334.107	176.000
334.375	172.000
334.643	170.000
334.911	176.000
335.179	174.000
335.447	174.000
335.715	177.000
335.983	173.000
336.251	175.000
336.519	173.000
336.787	175.000
337.055	174.000
337.323	174.000
337.591	176.000
337.859	173.000
338.127	175.000
338.395	176.000
338.663	174.000
338.931	175.000
339.199	174.000
339.467	175.000
339.734	173.000
340.002	174.000
340.270	174.000
340.538	172.000
340.806	173.000
341.074	172.000
341.342	174.000
341.610	174.000
341.877	175.000
342.145	176.000
342.413	175.000
342.681	172.000
342.949	174.000
343.216	174.000
343.484	174.000
343.752	170.000
344.020	174.000
344.288	174.000
344.555	175.000
344.823	173.000
345.091	174.000
345.359	172.000
345.626	174.000
345.894	175.000
346.162	173.000
346.429	176.000
346.697	172.000
346.965	174.000
347.232	175.000
347.500	175.000
347.768	175.000
348.035	175.000
348.303	174.000
348.571	173.000
348.838	171.000
349.106	175.000
349.374	173.000
349.641	176.000
349.909	175.000
350.176	175.000
350.444	174.000
350.712	174.000
350.979	173.000
351.247	172.000
351.514	176.000
351.782	174.000
352.049	176.000
352.317	173.000
352.584	175.000
352.852	173.000
353.119	175.000
353.387	176.000
353.654	173.000
353.922	175.000
354.189	175.000
354.457	175.000
354.724	175.000
354.992	172.000
355.259	174.000
355.526	171.000
355.794	173.000
356.061	176.000
356.329	173.000
356.596	173.000
356.863	176.000
357.131	174.000
357.398	175.000
357.666	174.000
357.933	172.000
358.200	172.000
358.468	174.000
358.735	172.000
359.002	173.000
359.270	175.000
359.537	174.000
359.804	175.000
360.071	173.000
360.339	175.000
360.606	176.000
360.873	175.000
361.141	174.000
361.408	173.000
361.675	174.000
361.942	174.000
362.210	175.000
362.477	174.000
362.744	173.000
363.011	172.000
363.278	173.000
363.546	172.000
363.813	173.000
364.080	176.000
364.347	174.000
364.614	174.000
364.881	178.000
365.148	174.000
365.416	175.000
365.683	174.000
365.950	174.000
366.217	178.000
366.484	176.000
366.751	178.000
367.018	177.000
367.285	178.000
367.552	177.000
367.819	175.000
368.086	173.000
368.354	174.000
368.621	176.000
368.888	174.000
369.155	176.000
369.422	172.000
369.689	174.000
369.956	174.000
370.223	174.000
370.490	175.000
370.757	174.000
371.024	177.000
371.290	173.000
371.557	176.000
371.824	174.000
372.091	175.000
372.358	177.000
372.625	175.000
372.892	174.000
373.159	177.000
373.426	175.000
373.693	176.000
373.960	173.000
374.226	175.000
374.493	173.000
374.760	176.000
375.027	175.000
375.294	173.000
375.561	176.000
375.827	177.000
376.094	174.000
376.361	174.000
376.628	173.000
376.895	174.000
377.161	173.000
377.428	174.000
377.695	175.000
377.962	175.000
378.228	173.000
378.495	176.000
378.762	174.000
379.029	175.000
379.295	175.000
379.562	174.000
379.829	175.000
380.095	173.000
380.362	177.000
380.629	176.000
380.896	175.000
381.162	175.000
381.429	177.000
381.695	176.000
381.962	174.000
382.229	177.000
382.495	172.000
382.762	173.000
383.029	174.000
383.295	173.000
383.562	174.000
383.828	175.000
384.095	175.000
384.361	176.000
384.628	176.000
384.895	174.000
385.161	173.000
385.428	175.000
385.694	177.000
385.961	175.000
386.227	177.000
386.494	174.000
386.760	176.000
387.027	176.000
387.293	176.000
387.560	173.000
387.826	172.000
388.092	171.000
388.359	185.000
388.625	292.000
388.892	359.000
389.158	317.000
389.425	215.000
389.691	173.000
389.957	174.000
390.224	177.000
390.490	175.000
390.757	177.000
391.023	176.000
391.289	175.000
391.556	176.000
391.822	178.000
392.088	177.000
392.355	174.000
392.621	176.000
392.887	173.000
393.154	175.000
393.420	178.000
393.686	174.000
393.952	173.000
394.219	177.000
394.485	174.000
394.751	171.000
395.017	175.000
395.284	176.000
395.550	175.000
395.816	176.000
396.082	176.000
396.349	177.000
396.615	173.000
396.881	176.000
397.147	175.000
397.413	178.000
397.679	174.000
397.946	177.000
398.212	176.000
398.478	178.000
398.744	175.000
399.010	179.000
399.276	175.000
399.542	178.000
399.808	176.000
400.075	176.000
400.341	175.000
400.607	174.000
400.873	173.000
401.139	176.000
401.405	176.000
401.671	177.000
401.937	175.000
402.203	176.000
402.469	172.000
402.735	178.000
403.001	176.000
403.267	176.000
403.533	178.000
403.799	175.000
404.065	176.000
404.331	176.000
404.597	177.000
404.863	171.000
405.129	178.000
405.395	175.000
405.661	177.000
405.927	175.000
406.192	176.000
406.458	176.000
406.724	179.000
406.990	173.000
407.256	174.000
407.522	178.000
407.788	178.000
408.054	176.000
408.319	177.000
408.585	180.000
408.851	177.000
409.117	176.000
409.383	178.000
409.649	176.000
409.914	177.000
410.180	177.000
410.446	178.000
410.712	175.000
410.977	176.000
411.243	176.000
411.509	174.000
411.775	174.000
412.040	174.000
412.306	174.000
412.572	176.000
412.838	180.000
413.103	173.000
413.369	176.000
413.635	178.000
413.900	173.000
414.166	175.000
414.432	173.000
414.697	173.000
414.963	178.000
415.229	175.000
415.494	176.000
415.760	174.000
416.025	175.000
416.291	177.000
416.557	174.000
416.822	175.000
417.088	177.000
417.353	175.000
417.619	175.000
417.884	178.000
418.150	175.000
418.416	176.000
418.681	174.000
418.947	178.000
419.212	176.000
419.478	177.000
419.743	180.000
420.009	177.000
420.274	176.000
420.540	174.000
420.805	177.000
421.071	175.000
421.336	174.000
421.601	175.000
421.867	177.000
422.132	178.000
422.398	178.000
422.663	176.000
422.929	175.000
423.194	175.000
423.459	176.000
423.725	176.000
423.990	176.000
424.256	175.000
424.521	176.000
424.786	176.000
425.052	174.000
425.317	178.000
425.582	177.000
425.848	176.000
426.113	172.000
426.378	176.000
426.643	177.000
426.909	177.000
427.174	174.000
427.439	176.000
427.705	176.000
427.970	177.000
428.235	176.000
428.500	174.000
428.766	178.000
429.031	178.000
429.296	176.000
429.561	179.000
429.826	177.000
430.092	176.000
430.357	177.000
430.622	175.000
430.887	177.000
431.152	178.000
431.417	175.000
431.683	175.000
431.948	177.000
432.213	176.000
432.478	178.000
432.743	174.000
433.008	173.000
433.273	175.000
433.538	176.000
433.803	177.000
434.069	173.000
434.334	174.000
434.599	173.000
434.864	177.000
435.129	179.000
435.394	177.000
435.659	174.000
435.924	176.000
436.189	175.000
436.454	176.000
436.719	177.000
436.984	177.000
437.249	176.000
437.514	176.000
437.779	176.000
438.044	178.000
438.309	176.000
438.574	176.000
438.838	175.000
439.103	174.000
439.368	176.000
439.633	177.000
439.898	172.000
440.163	174.000
440.428	176.000
440.693	177.000
440.958	176.000
441.222	174.000
441.487	177.000
441.752	177.000
442.017	177.000
442.282	175.000
442.547	176.000
442.811	176.000
443.076	177.000
443.341	175.000
443.606	176.000
443.871	179.000
444.135	176.000
444.400	177.000
444.665	175.000
444.930	173.000
445.194	174.000
445.459	174.000
445.724	181.000
445.989	177.000
446.253	176.000
446.518	169.000
446.783	171.000
447.047	243.000
447.312	276.000
447.577	225.000
447.841	176.000
448.106	173.000
448.371	176.000
448.635	179.000
448.900	175.000
449.165	176.000
449.429	173.000
449.694	175.000
449.958	174.000
450.223	176.000
450.488	175.000
450.752	176.000
451.017	173.000
451.281	176.000
451.546	174.000
451.810	173.000
452.075	174.000
452.339	176.000
452.604	177.000
452.868	175.000
453.133	176.000
453.397	174.000
453.662	174.000
453.926	175.000
454.191	175.000
454.455	178.000
454.720	176.000
454.984	174.000
455.249	175.000
455.513	175.000
455.778	175.000
456.042	174.000
456.306	173.000
456.571	175.000
456.835	174.000
457.100	176.000
457.364	175.000
457.628	177.000
457.893	177.000
458.157	177.000
458.421	176.000
458.686	177.000
458.950	176.000
459.214	175.000
459.479	173.000
459.743	176.000
460.007	177.000
460.272	178.000
460.536	174.000
460.800	173.000
461.064	176.000
461.329	175.000
461.593	177.000
461.857	176.000
462.121	178.000
462.386	179.000
462.650	178.000
462.914	175.000
463.178	175.000
463.442	176.000
463.707	177.000
463.971	179.000
464.235	175.000
464.499	175.000
464.763	174.000
465.027	177.000
465.292	173.000
465.556	176.000
465.820	175.000
466.084	177.000
466.348	176.000
466.612	174.000
466.876	177.000
467.140	173.000
467.404	177.000
467.668	174.000
467.933	177.000
468.197	177.000
468.461	175.000
468.725	174.000
468.989	177.000
469.253	175.000
469.517	176.000
469.781	175.000
470.045	175.000
470.309	176.000
470.573	177.000
470.837	173.000
471.101	174.000
471.365	171.000
471.629	174.000
471.892	174.000
472.156	174.000
472.420	175.000
472.684	173.000
472.948	175.000
473.212	178.000
473.476	176.000
473.740	175.000
474.004	171.000
474.268	172.000
474.531	175.000
474.795	175.000
475.059	173.000
475.323	174.000
475.587	175.000
475.851	174.000
476.114	177.000
476.378	175.000
476.642	175.000
476.906	176.000
477.170	176.000
477.433	174.000
477.697	172.000
477.961	175.000
478.225	174.000
478.488	176.000
478.752	176.000
479.016	176.000
479.280	174.000
479.543	176.000
479.807	175.000
480.071	173.000
480.334	177.000
480.598	175.000
480.862	177.000
481.125	172.000
481.389	177.000
481.653	175.000
481.916	177.000
482.180	174.000
482.444	172.000
482.707	174.000
482.971	176.000
483.234	173.000
483.498	173.000
483.762	177.000
484.025	178.000
484.289	175.000
484.552	172.000
484.816	171.000
485.079	173.000
485.343	174.000
485.607	175.000
485.870	175.000
486.134	176.000
486.397	173.000
486.661	175.000
486.924	175.000
487.188	175.000
487.451	175.000
487.715	174.000
487.978	174.000
488.241	173.000
488.505	174.000
488.768	175.000
489.032	177.000
489.295	173.000
489.559	172.000
489.822	175.000
490.085	170.000
490.349	174.000
490.612	172.000
490.876	173.000
491.139	173.000
491.402	175.000
491.666	175.000
491.929	169.000
492.192	164.000
492.456	177.000
492.719	171.000
492.982	174.000
493.246	174.000
493.509	175.000
493.772	176.000
494.035	174.000
494.299	173.000
494.562	173.000
494.825	173.000
495.088	173.000
495.352	173.000
495.615	176.000
495.878	173.000
496.141	177.000
496.405	170.000
496.668	174.000
496.931	175.000
497.194	177.000
497.457	175.000
497.721	174.000
497.984	175.000
498.247	178.000
498.510	174.000
498.773	173.000
499.036	172.000
499.299	175.000
499.562	176.000
499.826	174.000
500.089	174.000
500.352	173.000
500.615	170.000
500.878	168.000
501.141	174.000
501.404	269.000
501.667	333.000
501.930	280.000
502.193	192.000
502.456	169.000
502.719	176.000
502.982	177.000
503.245	173.000
503.508	174.000
503.771	172.000
504.034	174.000
504.297	173.000
504.560	173.000
504.823	173.000
505.086	174.000
505.349	173.000
505.612	174.000
505.875	174.000
506.138	173.000
506.401	177.000
506.664	173.000
506.927	172.000
507.189	174.000
507.452	174.000
507.715	175.000
507.978	175.000
508.241	175.000
508.504	174.000
508.767	174.000
509.029	174.000
509.292	175.000
509.555	171.000
509.818	178.000
510.081	172.000
510.343	175.000
510.606	174.000
510.869	174.000
511.132	174.000
511.395	174.000
511.657	173.000
511.920	172.000
512.183	176.000
512.446	176.000
512.708	173.000
512.971	174.000
513.234	176.000
513.496	174.000
513.759	174.000
514.022	171.000
514.284	172.000
514.547	174.000
514.810	175.000
515.072	173.000
515.335	174.000
515.598	173.000
515.860	173.000
516.123	178.000
516.386	173.000
516.648	177.000
516.911	175.000
517.173	174.000
517.436	174.000
517.698	176.000
517.961	176.000
518.224	171.000
518.486	173.000
518.749	176.000
519.011	172.000
519.274	174.000
519.536	174.000
519.799	174.000
520.061	175.000
520.324	175.000
520.586	172.000
520.849	171.000
521.111	173.000
521.374	177.000
521.636	173.000
521.899	176.000
522.161	173.000
522.423	174.000
522.686	176.000
522.948	174.000
523.211	173.000
523.473	175.000
523.736	173.000
523.998	175.000
524.260	171.000
524.523	173.000
524.785	174.000
525.047	174.000
525.310	173.000
525.572	174.000
525.834	176.000
526.097	172.000
526.359	171.000
526.621	171.000
526.884	176.000
527.146	172.000
527.408	173.000
527.670	172.000
527.933	173.000
528.195	173.000
528.457	175.000
528.719	173.000
528.982	173.000
529.244	173.000
529.506	172.000
529.768	175.000
530.031	175.000
530.293	174.000
530.555	174.000
530.817	178.000
531.079	173.000
531.342	172.000
531.604	173.000
531.866	176.000
532.128	173.000
532.390	174.000
532.652	175.000
532.914	175.000
533.176	177.000
533.439	174.000
533.701	177.000
533.963	174.000
534.225	174.000
534.487	177.000
534.749	175.000
535.011	173.000
535.273	172.000
535.535	173.000
535.797	171.000
536.059	176.000
536.321	173.000
536.583	175.000
536.845	177.000
537.107	175.000
537.369	175.000
537.631	175.000
537.893	173.000
538.155	172.000
538.417	174.000
538.679	175.000
538.941	171.000
539.203	174.000
539.465	176.000
539.727	173.000
539.989	173.000
540.251	174.000
540.512	172.000
540.774	174.000
541.036	174.000
541.298	175.000
541.560	175.000
541.822	173.000
542.084	175.000
542.345	176.000
542.607	177.000
542.869	174.000
543.131	172.000
543.393	177.000
543.655	174.000
543.916	176.000
544.178	178.000
544.440	176.000
544.702	172.000
544.963	173.000
545.225	176.000
545.487	176.000
545.749	172.000
546.010	176.000
546.272	174.000
546.534	173.000
546.795	173.000
547.057	178.000
547.319	172.000
547.581	175.000
547.842	172.000
548.104	173.000
548.366	174.000
548.627	176.000
548.889	176.000
549.150	176.000
549.412	175.000
549.674	175.000
549.935	174.000
550.197	176.000
550.459	175.000
550.720	175.000
550.982	172.000
551.243	174.000
551.505	173.000
551.766	177.000
552.028	175.000
552.289	177.000
552.551	176.000
552.813	174.000
553.074	176.000
553.336	172.000
553.597	176.000
553.859	173.000
554.120	176.000
554.382	173.000
554.643	173.000
554.904	175.000
555.166	174.000
555.427	175.000
555.689	178.000
555.950	172.000
556.212	175.000
556.473	175.000
556.735	175.000
556.996	175.000
557.257	173.000
557.519	177.000
557.780	174.000
558.041	172.000
558.303	176.000
558.564	177.000
558.826	175.000
559.087	175.000
559.348	172.000
559.609	175.000
559.871	175.000
560.132	176.000
560.393	177.000
560.655	173.000
560.916	173.000
561.177	176.000
561.439	177.000
561.700	177.000
561.961	176.000
562.222	175.000
562.484	174.000
562.745	176.000
563.006	173.000
563.267	176.000
563.528	173.000
563.790	175.000
564.051	175.000
564.312	177.000
564.573	175.000
564.834	173.000
565.095	177.000
565.357	173.000
565.618	175.000
565.879	175.000
566.140	175.000
566.401	174.000
566.662	172.000
566.923	172.000
567.184	175.000
567.446	177.000
567.707	174.000
567.968	178.000
568.229	175.000
568.490	176.000
568.751	176.000
569.012	175.000
569.273	176.000
569.534	171.000
569.795	175.000
570.056	172.000
570.317	174.000
570.578	172.000
570.839	178.000
571.100	174.000
571.361	180.000
571.622	174.000
571.883	177.000
572.144	174.000
572.405	176.000
572.666	174.000
572.927	175.000
573.188	176.000
573.449	175.000
573.709	177.000
573.970	176.000
574.231	177.000
574.492	176.000
574.753	178.000
575.014	174.000
575.275	174.000
575.536	176.000
575.796	177.000
576.057	173.000
576.318	176.000
576.579	174.000
576.840	177.000
577.100	174.000
577.361	176.000
577.622	175.000
577.883	175.000
578.144	176.000
578.404	176.000
578.665	177.000
578.926	176.000
579.187	175.000
579.447	175.000
579.708	176.000
579.969	175.000
580.229	176.000
580.490	175.000
580.751	176.000
581.012	177.000
581.272	175.000
581.533	176.000
581.794	177.000
582.054	176.000
582.315	175.000
582.576	177.000
582.836	172.000
583.097	174.000
583.357	178.000
583.618	177.000
583.879	173.000
584.139	177.000
584.400	177.000
584.660	176.000
584.921	176.000
585.181	177.000
585.442	173.000
585.703	170.000
585.963	168.000
586.224	221.000
586.484	317.000
586.745	460.000
587.005	560.000
587.266	827.000
587.526	1516.000
587.787	1637.000
588.047	1023.000
588.308	535.000
588.568	312.000
588.829	212.000
589.089	172.000
589.349	170.000
589.610	176.000
589.870	174.000
590.131	180.000
590.391	174.000
590.651	173.000
590.912	176.000
591.172	178.000
591.433	179.000
591.693	179.000
591.953	175.000
592.214	175.000
592.474	176.000
592.734	176.000
592.995	179.000
593.255	179.000
593.515	175.000
593.776	176.000
594.036	175.000
594.296	175.000
594.557	179.000
594.817	174.000
595.077	179.000
595.337	174.000
595.598	178.000
595.858	179.000
596.118	174.000
596.378	176.000
596.639	174.000
596.899	175.000
597.159	176.000
597.419	179.000
597.679	176.000
597.939	173.000
598.200	175.000
598.460	177.000
598.720	176.000
598.980	176.000
599.240	178.000
599.500	178.000
599.761	176.000
600.021	176.000
600.281	175.000
600.541	178.000
600.801	175.000
601.061	174.000
601.321	177.000
601.581	174.000
601.841	177.000
602.101	173.000
602.361	178.000
602.621	176.000
602.881	176.000
603.142	179.000
603.402	175.000
603.662	176.000
603.922	176.000
604.182	176.000
604.442	175.000
604.702	178.000
604.961	174.000
605.221	177.000
605.481	176.000
605.741	174.000
606.001	180.000
606.261	175.000
606.521	178.000
606.781	177.000
607.041	176.000
607.301	174.000
607.561	177.000
607.821	176.000
608.081	177.000
608.340	175.000
608.600	177.000
608.860	175.000
609.120	175.000
609.380	176.000
609.640	176.000
609.899	177.000
610.159	174.000
610.419	176.000
610.679	176.000
610.939	176.000
611.199	175.000
611.458	176.000
611.718	175.000
611.978	177.000
612.238	176.000
612.497	175.000
612.757	173.000
613.017	178.000
613.277	177.000
613.536	177.000
613.796	177.000
614.056	180.000
614.315	176.000
614.575	173.000
614.835	177.000
615.094	178.000
615.354	175.000
615.614	176.000
615.873	175.000
616.133	178.000
616.393	178.000
616.652	176.000
616.912	178.000
617.171	175.000
617.431	174.000
617.691	174.000
617.950	175.000
618.210	177.000
618.469	177.000
618.729	177.000
618.989	175.000
619.248	178.000
619.508	176.000
619.767	174.000
620.027	180.000
620.286	180.000
620.546	175.000
620.805	177.000
621.065	176.000
621.324	176.000
621.584	175.000
621.843	178.000
622.103	178.000
622.362	177.000
622.622	177.000
622.881	174.000
623.140	173.000
623.400	178.000
623.659	175.000
623.919	177.000
624.178	177.000
624.437	178.000
624.697	176.000
624.956	176.000
625.216	175.000
625.475	177.000
625.734	176.000
625.994	176.000
626.253	176.000
626.512	176.000
626.772	174.000
627.031	177.000
627.290	176.000
627.550	177.000
627.809	178.000
628.068	176.000
628.327	176.000
628.587	178.000
628.846	176.000
629.105	179.000
629.364	174.000
629.624	175.000
629.883	178.000
630.142	174.000
630.401	176.000
630.661	176.000
630.920	175.000
631.179	176.000
631.438	177.000
631.697	174.000
631.957	175.000
632.216	176.000
632.475	175.000
632.734	175.000
632.993	180.000
633.252	175.000
633.511	175.000
633.770	174.000
634.030	175.000
634.289	177.000
634.548	174.000
634.807	179.000
635.066	175.000
635.325	173.000
635.584	174.000
635.843	177.000
636.102	175.000
636.361	175.000
636.620	175.000
636.879	176.000
637.138	178.000
637.397	174.000
637.656	177.000
637.915	177.000
638.174	174.000
638.433	176.000
638.692	173.000
638.951	177.000
639.210	176.000
639.469	174.000
639.728	175.000
639.987	177.000
640.246	173.000
640.505	177.000
640.764	176.000
641.023	172.000
641.282	177.000
641.540	174.000
641.799	177.000
642.058	177.000
642.317	178.000
642.576	176.000
642.835	173.000
643.094	174.000
643.352	176.000
643.611	177.000
643.870	175.000
644.129	176.000
644.388	174.000
644.646	177.000
644.905	177.000
645.164	176.000
645.423	176.000
645.682	176.000
645.940	175.000
646.199	178.000
646.458	177.000
646.716	175.000
646.975	179.000
647.234	176.000
647.493	174.000
647.751	178.000
648.010	177.000
648.269	175.000
648.527	174.000
648.786	174.000
649.045	173.000
649.303	174.000
649.562	176.000
649.821	176.000
650.079	176.000
650.338	175.000
650.597	174.000
650.855	176.000
651.114	177.000
651.372	178.000
651.631	173.000
651.890	176.000
652.148	176.000
652.407	176.000
652.665	176.000
652.924	175.000
653.182	177.000
653.441	177.000
653.699	173.000
653.958	177.000
654.216	177.000
654.475	176.000
654.733	176.000
654.992	172.000
655.250	175.000
655.509	174.000
655.767	176.000
656.026	174.000
656.284	174.000
656.543	175.000
656.801	175.000
657.059	176.000
657.318	177.000
657.576	174.000
657.835	175.000
658.093	173.000
658.351	176.000
658.610	174.000
658.868	176.000
659.127	174.000
659.385	176.000
659.643	173.000
659.902	177.000
660.160	173.000
660.418	176.000
660.677	174.000
660.935	174.000
661.193	177.000
661.452	176.000
661.710	176.000
661.968	178.000
662.226	175.000
662.485	177.000
662.743	176.000
663.001	173.000
663.259	173.000
663.518	174.000
663.776	173.000
664.034	176.000
664.292	175.000
664.550	173.000
664.809	172.000
665.067	174.000
665.325	176.000
665.583	174.000
665.841	175.000
666.099	174.000
666.358	173.000
666.616	172.000
666.874	163.000
667.132	251.000
667.390	321.000
667.648	457.000
667.906	688.000
668.164	687.000
668.423	460.000
668.681	281.000
668.939	200.000
669.197	175.000
669.455	169.000
669.713	173.000
669.971	176.000
670.229	175.000
670.487	178.000
670.745	175.000
671.003	174.000
671.261	175.000
671.519	172.000
671.777	173.000
672.035	174.000
672.293	174.000
672.551	173.000
672.809	174.000
673.067	174.000
673.325	174.000
673.583	173.000
673.841	175.000
674.099	175.000
674.356	174.000
674.614	173.000
674.872	175.000
675.130	174.000
675.388	175.000
675.646	175.000
675.904	174.000
676.162	172.000
676.419	175.000
676.677	175.000
676.935	175.000
677.193	175.000
677.451	173.000
677.709	175.000
677.966	174.000
678.224	174.000
678.482	175.000
678.740	174.000
678.998	175.000
679.255	174.000
679.513	175.000
679.771	175.000
680.029	174.000
680.286	173.000
680.544	174.000
680.802	175.000
681.059	174.000
681.317	175.000
681.575	173.000
681.833	174.000
682.090	173.000
682.348	175.000
682.606	175.000
682.863	173.000
683.121	175.000
683.379	175.000
683.636	177.000
683.894	173.000
684.151	173.000
684.409	176.000
684.667	175.000
684.924	178.000
685.182	173.000
685.439	176.000
685.697	175.000
685.955	176.000
686.212	174.000
686.470	174.000
686.727	175.000
686.985	174.000
687.242	173.000
687.500	172.000
687.757	173.000
688.015	177.000
688.272	175.000
688.530	174.000
688.787	174.000
689.045	175.000
689.302	179.000
689.560	176.000
689.817	174.000
690.075	174.000
690.332	178.000
690.589	177.000
690.847	175.000
691.104	172.000
691.362	173.000
691.619	176.000
691.876	175.000
692.134	172.000
692.391	175.000
692.649	175.000
692.906	175.000
693.163	174.000
693.421	178.000
693.678	174.000
693.935	177.000
694.193	175.000
694.450	174.000
694.707	175.000
694.965	175.000
695.222	175.000
695.479	175.000
695.736	178.000
695.994	175.000
696.251	172.000
696.508	176.000
696.765	173.000
697.023	175.000
697.280	174.000
697.537	175.000
697.794	175.000
698.052	175.000
698.309	174.000
698.566	173.000
698.823	174.000
699.080	174.000
699.338	176.000
699.595	174.000
699.852	176.000
700.109	173.000
700.366	173.000
700.623	175.000
700.880	175.000
701.137	176.000
701.395	175.000
701.652	173.000
701.909	175.000
702.166	174.000
702.423	175.000
702.680	174.000
702.937	177.000
703.194	175.000
703.451	174.000
703.708	178.000
703.965	173.000
704.222	173.000
704.479	176.000
704.736	174.000
704.993	176.000
705.250	176.000
705.507	175.000
705.764	165.000
706.021	253.000
706.278	336.000
706.535	506.000
706.792	650.000
707.049	572.000
707.306	380.000
707.563	253.000
707.820	190.000
708.077	171.000
708.334	171.000
708.591	177.000
708.847	177.000
709.104	177.000
709.361	175.000
709.618	178.000
709.875	176.000
710.132	174.000
710.389	176.000
710.645	175.000
710.902	174.000
711.159	174.000
711.416	177.000
711.673	177.000
711.930	175.000
712.186	175.000
712.443	173.000
712.700	178.000
712.957	175.000
713.213	175.000
713.470	172.000
713.727	175.000
713.984	174.000
714.240	175.000
714.497	176.000
714.754	176.000
715.011	175.000
715.267	177.000
715.524	176.000
715.781	177.000
716.037	175.000
716.294	175.000
716.551	174.000
716.807	174.000
717.064	175.000
717.321	176.000
717.577	177.000
717.834	175.000
718.090	177.000
718.347	177.000
718.604	177.000
718.860	177.000
719.117	174.000
719.373	174.000
719.630	174.000
719.886	177.000
720.143	174.000
720.400	176.000
720.656	174.000
720.913	178.000
721.169	176.000
721.426	176.000
721.682	175.000
721.939	174.000
722.195	175.000
722.452	173.000
722.708	176.000
722.965	176.000
723.221	177.000
723.478	177.000
723.734	174.000
723.990	176.000
724.247	175.000
724.503	174.000
724.760	175.000
725.016	176.000
725.273	176.000
725.529	173.000
725.785	176.000
726.042	178.000
726.298	175.000
726.554	179.000
726.811	178.000
727.067	175.000
727.323	176.000
727.580	175.000
727.836	167.000
728.092	172.000
728.349	233.000
728.605	232.000
728.861	194.000
729.118	169.000
729.374	168.000
729.630	174.000
729.886	175.000
730.143	176.000
730.399	174.000
730.655	177.000
730.911	175.000
731.168	174.000
731.424	175.000
731.680	178.000
731.936	175.000
732.193	175.000
732.449	175.000
732.705	175.000
732.961	173.000
733.217	174.000
733.473	176.000
733.730	176.000
733.986	175.000
734.242	174.000
734.498	174.000
734.754	172.000
735.010	178.000
735.266	175.000
735.522	175.000
735.778	176.000
736.035	177.000
736.291	177.000
736.547	176.000
736.803	177.000
737.059	177.000
737.315	175.000
737.571	174.000
737.827	177.000
738.083	176.000
738.339	175.000
738.595	175.000
738.851	177.000
739.107	177.000
739.363	175.000
739.619	175.000
739.875	176.000
740.131	175.000
740.387	176.000
740.643	178.000
740.899	175.000
741.155	177.000
741.411	177.000
741.666	173.000
741.922	175.000
742.178	175.000
742.434	173.000
742.690	175.000
742.946	175.000
743.202	173.000
743.458	176.000
743.714	178.000
743.969	174.000
744.225	173.000
744.481	175.000
744.737	178.000
744.993	176.000
745.249	173.000
745.504	174.000
745.760	178.000
746.016	176.000
746.272	179.000
746.527	175.000
746.783	178.000
747.039	174.000
747.295	177.000
747.550	175.000
747.806	175.000
748.062	176.000
748.318	175.000
748.573	174.000
748.829	178.000
749.085	174.000
749.340	175.000
749.596	176.000
749.852	175.000
750.108	175.000
750.363	179.000
750.619	179.000
750.874	175.000
751.130	175.000
751.386	174.000
751.641	173.000
751.897	178.000
752.153	176.000
752.408	176.000
752.664	177.000
752.919	175.000
753.175	176.000
753.430	175.000
753.686	175.000
753.942	177.000
754.197	174.000
754.453	176.000
754.708	176.000
754.964	174.000
755.219	175.000
755.475	176.000
755.730	175.000
755.986	177.000
756.241	176.000
756.497	174.000
756.752	176.000
757.008	174.000
757.263	176.000
757.519	175.000
757.774	173.000
758.029	177.000
758.285	176.000
758.540	178.000
758.796	175.000
759.051	176.000
759.307	176.000
759.562	173.000
759.817	177.000
760.073	178.000
760.328	172.000
760.583	174.000
760.839	177.000
761.094	175.000
761.349	171.000
761.605	178.000
761.860	177.000
762.115	174.000
762.371	176.000
762.626	175.000
762.881	176.000
763.137	174.000
763.392	175.000
763.647	177.000
763.902	177.000
764.158	176.000
764.413	174.000
764.668	175.000
764.923	175.000
765.179	175.000
765.434	178.000
765.689	177.000
765.944	174.000
766.199	176.000
766.455	175.000
766.710	178.000
766.965	172.000
767.220	175.000
767.475	175.000
767.730	176.000
767.985	174.000
768.241	177.000
768.496	176.000
768.751	175.000
769.006	172.000
769.261	175.000
769.516	177.000
769.771	174.000
770.026	173.000
770.281	176.000
770.536	177.000
770.791	176.000
771.047	177.000
771.302	173.000
771.557	175.000
771.812	178.000
772.067	174.000
772.322	177.000
772.577	174.000
772.832	176.000
773.087	175.000
773.342	178.000
773.597	177.000
773.852	177.000
774.107	176.000
774.361	172.000
774.616	174.000
774.871	174.000
775.126	176.000
775.381	177.000
775.636	176.000
775.891	177.000
776.146	173.000
776.401	176.000
776.656	175.000
776.911	173.000
777.165	175.000
777.420	177.000
777.675	177.000
777.930	173.000
778.185	176.000
778.440	175.000
778.694	174.000
778.949	174.000
779.204	177.000
779.459	176.000
779.714	174.000
779.968	176.000
780.223	173.000
780.478	174.000
780.733	175.000
780.988	173.000
781.242	177.000
781.497	173.000
781.752	176.000
782.006	173.000
782.261	176.000
782.516	176.000
782.771	174.000
783.025	174.000
783.280	175.000
783.535	177.000
783.789	175.000
784.044	174.000
784.299	176.000
784.553	176.000
784.808	174.000
785.063	175.000
785.317	174.000
785.572	175.000
785.826	176.000
786.081	173.000
786.336	175.000
786.590	174.000
786.845	174.000
787.099	176.000
787.354	176.000
787.609	173.000
787.863	177.000
788.118	175.000
788.372	175.000
788.627	177.000
788.881	174.000
789.136	174.000
789.390	176.000
789.645	175.000
789.899	174.000
790.154	176.000
790.408	173.000
790.663	174.000
790.917	176.000
791.172	175.000
791.426	174.000
791.680	175.000
791.935	176.000
792.189	173.000
792.444	174.000
792.698	172.000
792.953	174.000
793.207	176.000
793.461	175.000
793.716	176.000
793.970	175.000
794.224	174.000
794.479	174.000
794.733	176.000
794.987	174.000
795.242	175.000
795.496	174.000
795.750	172.000
796.005	175.000
796.259	177.000
796.513	175.000
796.768	174.000
797.022	171.000
797.276	177.000
797.530	174.000
797.785	172.000
798.039	174.000
798.293	179.000
798.547	177.000
798.802	172.000
799.056	174.000
799.310	174.000
799.564	175.000
799.819	174.000
800.073	174.000
800.327	178.000
800.581	173.000
800.835	174.000
801.089	176.000
801.344	177.000
801.598	174.000
801.852	176.000
802.106	174.000
802.360	177.000
802.614	175.000
802.868	177.000
803.122	176.000
803.377	176.000
803.631	173.000
803.885	173.000
804.139	174.000
804.393	176.000
804.647	174.000
804.901	177.000
805.155	174.000
805.409	174.000
805.663	173.000
805.917	176.000
806.171	174.000
806.425	173.000
806.679	172.000
806.933	173.000
807.187	175.000
807.441	174.000
807.695	176.000
807.949	173.000
808.203	175.000
808.457	174.000
808.711	174.000
808.965	173.000
809.219	173.000
809.473	172.000
809.726	176.000
809.980	176.000
810.234	172.000
810.488	176.000
810.742	172.000
810.996	175.000
811.250	175.000
811.504	177.000
811.757	175.000
812.011	175.000
812.265	176.000
812.519	176.000
812.773	175.000
813.027	174.000
813.280	172.000
813.534	173.000
813.788	174.000
814.042	175.000
814.295	174.000
814.549	172.000
814.803	174.000
815.057	173.000
815.310	175.000
815.564	172.000
815.818	177.000
816.072	174.000
816.325	178.000
816.579	173.000
816.833	176.000
817.086	175.000
817.340	173.000
817.594	175.000
817.848	175.000
818.101	172.000
818.355	178.000
818.608	174.000
818.862	176.000
819.116	175.000
819.369	175.000
819.623	174.000
819.877	175.000
820.130	173.000
820.384	174.000
820.637	173.000
820.891	176.000
821.144	173.000
821.398	175.000
821.652	174.000
821.905	172.000
822.159	174.000
822.412	174.000
822.666	173.000
822.919	174.000
823.173	173.000
823.426	175.000
823.680	176.000
823.933	175.000
824.187	177.000
824.440	175.000
824.694	177.000
824.947	172.000
825.201	174.000
825.454	175.000
825.707	173.000
825.961	173.000
826.214	179.000
826.468	173.000
826.721	174.000
826.975	176.000
827.228	175.000
827.481	174.000
827.735	172.000
827.988	178.000
828.241	175.000
828.495	174.000
828.748	174.000
829.001	175.000
829.255	175.000
829.508	176.000
829.761	173.000
830.015	172.000
830.268	173.000
830.521	177.000
830.775	175.000
831.028	175.000
831.281	172.000
831.534	174.000
831.788	175.000
832.041	176.000
832.294	175.000
832.547	173.000
832.801	176.000
833.054	174.000
833.307	173.000
833.560	174.000
833.813	173.000
834.067	175.000
834.320	175.000
834.573	175.000
834.826	175.000
835.079	175.000
835.332	173.000
835.586	177.000
835.839	176.000
836.092	175.000
836.345	173.000
836.598	174.000
836.851	176.000
837.104	174.000
837.357	174.000
837.611	178.000
837.864	173.000
838.117	172.000
838.370	172.000
838.623	177.000
838.876	174.000
839.129	174.000
839.382	177.000
839.635	172.000
839.888	176.000
840.141	177.000
840.394	176.000
840.647	177.000
840.900	178.000
841.153	175.000
841.406	176.000
841.659	176.000
841.912	175.000
842.165	174.000
842.418	175.000
842.671	177.000
842.924	174.000
843.176	173.000
843.429	176.000
843.682	178.000
843.935	173.000
844.188	177.000
844.441	177.000
844.694	177.000
844.947	175.000
845.200	172.000
845.452	175.000
845.705	178.000
845.958	175.000
846.211	174.000
846.464	176.000
846.717	177.000
846.969	173.000
847.222	174.000
847.475	176.000
847.728	175.000
847.981	174.000
848.233	176.000
848.486	176.000
848.739	175.000
848.992	174.000
849.244	174.000
849.497	176.000
849.750	175.000
850.003	176.000
850.255	175.000
850.508	176.000
850.761	174.000
851.013	175.000
851.266	176.000
851.519	177.000
851.771	177.000
852.024	175.000
852.277	172.000
852.529	176.000
852.782	176.000
853.035	174.000
853.287	174.000
853.540	176.000
853.792	173.000
854.045	177.000
854.298	173.000
854.550	177.000
854.803	175.000
855.055	176.000
855.308	174.000
855.560	176.000
855.813	177.000
856.066	176.000
856.318	175.000
856.571	175.000
856.823	175.000
857.076	177.000
857.328	176.000
857.581	175.000
857.833	177.000
858.086	173.000
858.338	176.000
858.591	175.000
858.843	174.000
859.095	177.000
859.348	178.000
859.600	176.000
859.853	175.000
860.105	177.000
860.358	174.000
860.610	175.000
860.862	176.000
861.115	175.000
861.367	178.000
861.620	177.000
861.872	175.000
862.124	176.000
862.377	174.000
862.629	175.000
862.881	177.000
863.134	176.000
863.386	174.000
863.638	176.000
863.891	178.000
864.143	176.000
864.395	175.000
864.648	178.000
864.900	176.000
865.152	173.000
865.404	175.000
865.657	174.000
865.909	173.000
866.161	177.000
866.413	177.000
866.666	173.000
866.918	174.000
867.170	177.000
867.422	178.000
867.674	178.000
867.927	177.000
868.179	180.000
868.431	176.000
868.683	178.000
868.935	174.000
869.187	174.000
869.440	174.000
869.692	178.000
869.944	176.000
870.196	177.000
870.448	178.000
870.700	176.000
870.952	176.000
871.204	178.000
871.457	176.000
871.709	174.000
871.961	177.000
872.213	176.000
872.465	176.000
872.717	178.000
872.969	174.000
873.221	175.000
873.473	177.000
873.725	172.000
873.977	177.000
874.229	176.000
874.481	178.000
874.733	175.000
874.985	175.000
875.237	175.000
875.489	175.000
875.741	174.000
875.993	178.000
876.245	176.000
876.497	175.000
876.749	173.000
877.001	174.000
877.253	176.000
877.504	174.000
877.756	174.000
878.008	175.000
878.260	178.000
878.512	175.000
878.764	173.000
879.016	175.000
879.268	177.000
879.519	174.000
879.771	176.000
880.023	174.000
880.275	175.000
880.527	174.000
880.779	175.000
881.030	177.000
881.282	175.000
881.534	178.000
881.786	174.000
882.038	176.000
882.289	177.000
882.541	173.000
882.793	178.000
883.045	177.000
883.296	178.000
883.548	177.000
883.800	176.000
884.052	175.000
884.303	174.000
884.555	172.000
884.807	175.000
885.058	175.000
885.310	177.000
885.562	174.000
885.813	176.000
886.065	172.000
886.317	177.000
886.568	177.000
886.820	173.000
887.072	175.000
887.323	177.000
887.575	175.000
887.826	178.000
888.078	175.000
888.330	173.000
888.581	173.000
888.833	175.000
889.084	177.000
889.336	174.000
889.587	176.000
889.839	176.000
890.091	174.000
890.342	174.000
890.594	176.000
890.845	178.000
891.097	173.000
891.348	174.000
891.600	173.000
891.851	176.000
892.103	177.000
892.354	176.000
892.606	173.000
892.857	177.000
893.108	174.000
893.360	176.000
893.611	174.000
893.863	176.000
894.114	178.000
894.366	178.000
894.617	174.000
894.868	176.000
895.120	173.000
895.371	177.000
895.623	177.000
895.874	174.000
896.125	175.000
896.377	176.000
896.628	174.000
896.879	178.000
897.131	178.000
897.382	175.000
897.633	178.000
897.885	174.000
898.136	177.000
898.387	176.000
898.639	173.000
898.890	174.000
899.141	173.000
899.392	178.000
899.644	176.000
899.895	174.000
900.146	175.000
900.397	172.000
900.649	175.000
900.900	178.000
901.151	173.000
901.402	178.000
901.653	175.000
901.905	176.000
902.156	176.000
902.407	174.000
902.658	176.000
902.909	176.000
903.160	178.000
903.412	178.000
903.663	178.000
903.914	174.000
904.165	173.000
904.416	174.000
904.667	176.000
904.918	174.000
905.169	176.000
905.421	175.000
905.672	177.000
905.923	174.000
906.174	175.000
906.425	177.000
906.676	172.000
906.927	177.000
907.178	178.000
907.429	178.000
907.680	175.000
907.931	176.000
908.182	171.000
908.433	174.000
908.684	176.000
908.935	175.000
909.186	178.000
909.437	174.000
909.688	173.000
909.939	173.000
910.190	175.000
910.441	176.000
910.692	175.000
910.943	176.000
911.194	178.000
911.445	177.000
911.695	180.000
911.946	177.000
912.197	177.000
912.448	176.000
912.699	177.000
912.950	174.000
913.201	176.000
913.452	177.000
913.702	176.000
913.953	176.000
914.204	176.000
914.455	177.000
914.706	175.000
914.957	177.000
915.207	176.000
915.458	176.000
915.709	176.000
915.960	176.000
916.210	175.000
916.461	172.000
916.712	176.000
916.963	177.000
917.213	174.000
917.464	174.000
917.715	176.000
917.966	176.000
918.216	178.000
918.467	176.000
918.718	175.000
918.969	177.000
919.219	178.000
919.470	177.000
919.721	176.000
919.971	173.000
920.222	175.000
920.473	173.000
920.723	176.000
920.974	175.000
921.224	178.000
921.475	178.000
921.726	175.000
921.976	175.000
922.227	176.000
922.477	177.000
922.728	178.000
922.979	174.000
923.229	173.000
923.480	175.000
923.730	176.000
923.981	176.000
924.231	174.000
924.482	177.000
924.732	174.000
924.983	178.000
925.233	176.000
925.484	175.000
925.734	174.000
925.985	177.000
926.235	174.000
926.486	174.000
926.736	176.000
926.987	177.000
927.237	178.000
927.488	175.000
927.738	177.000
927.989	177.000
928.239	176.000
928.489	176.000
928.740	175.000
928.990	175.000
929.241	176.000
929.491	177.000
929.741	173.000
929.992	176.000
930.242	172.000
930.492	176.000
930.743	174.000
930.993	176.000
931.243	174.000
931.494	177.000
931.744	178.000
931.994	173.000
932.245	177.000
932.495	175.000
932.745	173.000
932.996	180.000
933.246	174.000
933.496	174.000
933.746	175.000
933.997	175.000
934.247	177.000
934.497	178.000
934.747	177.000
934.998	176.000
935.248	176.000
935.498	177.000
935.748	176.000
935.998	175.000
936.249	177.000
936.499	175.000
936.749	177.000
936.999	175.000
937.249	176.000
937.499	177.000
937.750	172.000
938.000	175.000
938.250	177.000
938.500	176.000
938.750	176.000
939.000	177.000
939.250	175.000
939.500	176.000
939.750	175.000
940.000	177.000
940.251	176.000
940.501	174.000
940.751	172.000
941.001	178.000
941.251	176.000
941.501	175.000
941.751	175.000
942.001	175.000
942.251	174.000
942.501	176.000
942.751	176.000
943.001	178.000
943.251	176.000
943.501	175.000
943.751	176.000
944.001	177.000
944.251	176.000
944.501	176.000
944.751	178.000
945.000	176.000
945.250	174.000
945.500	177.000
945.750	177.000
946.000	176.000
946.250	173.000
946.500	174.000
946.750	174.000
947.000	175.000
947.249	176.000
947.499	174.000
947.749	177.000
947.999	175.000
948.249	176.000
948.499	175.000
948.749	178.000
948.998	177.000
949.248	174.000
949.498	179.000
949.748	174.000
949.997	176.000
950.247	175.000
950.497	178.000
950.747	176.000
950.997	177.000
951.246	175.000
951.496	176.000
951.746	175.000
951.995	177.000
952.245	175.000
952.495	176.000
952.745	177.000
952.994	176.000
953.244	174.000
953.494	176.000
953.743	179.000
953.993	178.000
954.243	174.000
954.492	175.000
954.742	179.000
954.992	175.000
955.241	176.000
955.491	174.000
955.740	177.000
955.990	174.000
956.240	177.000
956.489	173.000
956.739	173.000
956.988	176.000
957.238	174.000
957.488	178.000
957.737	174.000
957.987	178.000
958.236	178.000
958.486	178.000
958.735	175.000
958.985	176.000
959.234	174.000
959.484	175.000
959.733	176.000
959.983	174.000
960.232	176.000
960.482	175.000
960.731	176.000
960.981	177.000
961.230	176.000
961.480	178.000
961.729	175.000
961.978	174.000
962.228	174.000
962.477	176.000
962.727	174.000
962.976	174.000
963.226	174.000
963.475	177.000
963.724	179.000
963.974	177.000
964.223	173.000
964.472	178.000
964.722	176.000
964.971	179.000
965.220	176.000
965.470	175.000
965.719	177.000
965.968	175.000
966.218	177.000
966.467	173.000
966.716	174.000
966.966	175.000
967.215	175.000
967.464	178.000
967.713	174.000
967.963	176.000
968.212	179.000
968.461	175.000
968.710	175.000
968.960	177.000
969.209	176.000
969.458	175.000
969.707	176.000
969.956	174.000
970.206	173.000
970.455	177.000
970.704	175.000
970.953	176.000
971.202	176.000
971.451	174.000
971.701	175.000
971.950	176.000
972.199	175.000
972.448	173.000
972.697	173.000
972.946	175.000
973.195	177.000
973.444	172.000
973.694	174.000
973.943	174.000
974.192	175.000
974.441	174.000
974.690	174.000
974.939	177.000
975.188	176.000
975.437	179.000
975.686	180.000
975.935	176.000
976.184	174.000
976.433	173.000
976.682	173.000
976.931	174.000
977.180	174.000
977.429	175.000
977.678	176.000
977.927	175.000
978.176	179.000
978.425	172.000
978.674	175.000
978.923	174.000
979.172	175.000
979.421	174.000
979.670	175.000
979.918	176.000
980.167	175.000
980.416	176.000
980.665	174.000
980.914	175.000
981.163	173.000
981.412	175.000
981.661	177.000
981.909	173.000
982.158	172.000
982.407	177.000
982.656	174.000
982.905	173.000
983.154	177.000
983.402	174.000
983.651	173.000
983.900	174.000
984.149	174.000
984.398	175.000
984.646	173.000
984.895	174.000
985.144	173.000
985.393	174.000
985.641	175.000
985.890	176.000
986.139	174.000
986.387	174.000
986.636	177.000
986.885	172.000
987.134	174.000
987.382	175.000
987.631	173.000
987.880	176.000
988.128	175.000
988.377	173.000
988.626	174.000
988.874	176.000
989.123	174.000
989.372	178.000
989.620	174.000
989.869	174.000
990.117	176.000
990.366	175.000
990.615	175.000
990.863	176.000
991.112	171.000
991.360	176.000
991.609	172.000
991.857	176.000
992.106	177.000
992.355	175.000
992.603	174.000
992.852	172.000
993.100	174.000
993.349	175.000
993.597	177.000
993.846	173.000
994.094	174.000
994.343	173.000
994.591	173.000
994.840	177.000
995.088	174.000
995.336	173.000
995.585	175.000
995.833	174.000
996.082	173.000
996.330	174.000
996.579	173.000
996.827	176.000
997.075	174.000
997.324	175.000
997.572	172.000
997.821	173.000
998.069	175.000
998.317	176.000
998.566	174.000
998.814	174.000
999.062	174.000
999.311	173.000
999.559	170.000
999.807	174.000
1000.056	174.000
1000.304	173.000
1000.552	173.000
1000.801	175.000
1001.049	175.000
1001.297	176.000
1001.546	174.000
1001.794	175.000
1002.042	174.000
1002.290	172.000
1002.539	173.000
1002.787	173.000
1003.035	175.000
1003.283	175.000
1003.531	174.000
1003.780	174.000
1004.028	173.000
1004.276	175.000
1004.524	175.000
1004.772	174.000
1005.021	175.000
1005.269	174.000
1005.517	172.000
1005.765	177.000
1006.013	176.000
1006.261	175.000
1006.509	176.000
1006.758	173.000
1007.006	174.000
1007.254	178.000
1007.502	174.000
1007.750	173.000
1007.998	173.000
1008.246	171.000
1008.494	172.000
1008.742	176.000
1008.990	174.000
1009.238	174.000
1009.486	175.000
1009.735	176.000
1009.983	172.000
1010.231	175.000
1010.479	173.000
1010.727	173.000
1010.975	174.000
1011.223	175.000
1011.471	172.000
1011.719	174.000
1011.967	175.000
1012.214	174.000
1012.462	175.000
1012.710	174.000
1012.958	174.000
1013.206	174.000
1013.454	176.000
1013.702	177.000
1013.950	175.000
1014.198	174.000
1014.446	172.000
1014.694	173.000
1014.942	172.000
1015.189	174.000
1015.437	171.000
1015.685	172.000
1015.933	172.000
1016.181	174.000
1016.429	175.000
1016.677	173.000
1016.924	172.000
1017.172	174.000
1017.420	176.000
1017.668	174.000
1017.916	174.000
1018.163	174.000
1018.411	175.000
1018.659	174.000
1018.907	174.000
1019.155	174.000
1019.402	173.000
1019.650	176.000
1019.898	174.000
1020.145	175.000
1020.393	174.000
1020.641	178.000
1020.889	175.000
1021.136	177.000
1021.384	176.000
1021.632	172.000
1021.879	176.000
1022.127	173.000
1022.375	172.000
1022.622	174.000
1022.870	178.000
1023.118	177.000
1023.365	174.000
1023.613	174.000
1023.861	176.000
1024.108	176.000
1024.356	175.000
1024.603	175.000
1024.851	172.000
1025.099	173.000
1025.346	176.000
1025.594	174.000
1025.841	176.000
1026.089	174.000
1026.336	175.000
1026.584	175.000
1026.832	173.000
1027.079	174.000
1027.327	175.000
1027.574	174.000
1027.822	173.000
1028.069	176.000
1028.317	175.000
1028.564	173.000
1028.812	172.000
1029.059	172.000
1029.306	175.000
1029.554	175.000
1029.801	175.000
1030.049	174.000
1030.296	176.000
1030.544	175.000
1030.791	171.000
1031.039	174.000
1031.286	174.000
1031.533	175.000
1031.781	173.000
1032.028	177.000
1032.276	175.000
1032.523	175.000
1032.770	176.000
1033.018	176.000
1033.265	179.000
1033.512	176.000
1033.760	174.000
1034.007	174.000
1034.254	176.000
1034.502	172.000
1034.749	177.000
1034.996	173.000
1035.243	174.000
1035.491	174.000
1035.738	175.000
1035.985	173.000
1036.233	173.000
1036.480	175.000
1036.727	176.000
1036.974	174.000
1037.222	176.000
1037.469	175.000
1037.716	175.000
1037.963	175.000
1038.210	174.000
1038.458	176.000
1038.705	176.000
1038.952	179.000
1039.199	174.000
1039.446	174.000
1039.693	174.000
1039.941	174.000
1040.188	175.000
1040.435	174.000
1040.682	176.000
1040.929	174.000
1041.176	175.000
1041.423	176.000
1041.671	175.000
1041.918	177.000
1042.165	174.000
1042.412	175.000
1042.659	175.000
1042.906	176.000
1043.153	175.000
1043.400	175.000
1043.647	175.000
1043.894	174.000
1044.141	173.000
1044.388	176.000
1044.635	174.000
1044.882	176.000
1045.129	176.000
1045.376	177.000
1045.623	175.000
1045.870	178.000
1046.117	174.000
1046.364	173.000
1046.611	171.000
1046.858	179.000
1047.105	175.000
1047.352	174.000
1047.599	176.000
1047.846	174.000
1048.093	177.000
1048.340	174.000
1048.587	176.000
1048.833	174.000
1049.080	177.000
1049.327	177.000
1049.574	175.000
1049.821	177.000
1050.068	173.000
1050.315	175.000
1050.561	176.000
1050.808	176.000
1051.055	177.000
1051.302	175.000
1051.549	175.000
1051.796	178.000
1052.042	177.000
1052.289	176.000
1052.536	177.000
1052.783	175.000
1053.030	178.000
1053.276	174.000
1053.523	177.000
1053.770	176.000
1054.017	173.000
1054.263	174.000
1054.510	177.000
1054.757	179.000
1055.003	174.000
1055.250	175.000
1055.497	175.000
1055.744	176.000
1055.990	175.000
1056.237	177.000
1056.484	173.000
1056.730	176.000
1056.977	175.000
1057.224	178.000
1057.470	176.000
1057.717	175.000
1057.963	175.000
1058.210	174.000
1058.457	176.000
1058.703	175.000
1058.950	176.000
1059.197	176.000
1059.443	180.000
1059.690	175.000
1059.936	177.000
1060.183	174.000
1060.429	177.000
1060.676	174.000
1060.922	174.000
1061.169	180.000
1061.416	174.000
1061.662	175.000
1061.909	177.000
1062.155	177.000
1062.402	174.000
1062.648	176.000
1062.895	175.000
1063.141	177.000
1063.387	175.000
1063.634	178.000
1063.880	176.000
1064.127	176.000
1064.373	176.000
1064.620	178.000
1064.866	177.000
1065.113	174.000
1065.359	175.000
1065.605	175.000
1065.852	174.000
1066.098	176.000
1066.345	175.000
1066.591	178.000
1066.837	175.000
1067.084	177.000
1067.330	175.000
1067.576	175.000
1067.823	176.000
1068.069	176.000
1068.315	175.000
1068.562	175.000
1068.808	174.000
1069.054	177.000
1069.301	177.000
1069.547	173.000
1069.793	177.000
1070.040	178.000
1070.286	174.000
1070.532	176.000
1070.778	175.000
1071.025	174.000
1071.271	174.000
1071.517	175.000
1071.763	174.000
1072.009	175.000
1072.256	175.000
1072.502	177.000
1072.748	175.000
1072.994	178.000
1073.240	175.000
1073.487	175.000
1073.733	174.000
1073.979	178.000
1074.225	176.000
1074.471	176.000
1074.717	174.000
1074.964	175.000
1075.210	175.000
1075.456	174.000
1075.702	176.000
1075.948	176.000
1076.194	177.000
1076.440	178.000
1076.686	176.000
1076.932	176.000
1077.178	176.000
1077.425	176.000
1077.671	175.000
1077.917	176.000
1078.163	177.000
1078.409	174.000
1078.655	177.000
1078.901	175.000
1079.147	177.000
1079.393	178.000
1079.639	174.000
1079.885	176.000
1080.131	176.000
1080.377	173.000
1080.623	174.000
1080.869	177.000
1081.115	177.000
1081.361	175.000
1081.606	176.000
1081.852	174.000
1082.098	175.000
1082.344	175.000
1082.590	178.000
1082.836	178.000
1083.082	175.000
1083.328	176.000
1083.574	174.000
1083.820	175.000
1084.065	173.000
1084.311	177.000
1084.557	179.000
1084.803	175.000
1085.049	175.000
1085.295	176.000
1085.541	174.000
1085.786	177.000
1086.032	175.000
1086.278	176.000
1086.524	177.000
1086.770	178.000
1087.015	176.000
1087.261	176.000
1087.507	177.000
1087.753	176.000
1087.998	179.000
1088.244	175.000
1088.490	176.000
1088.736	177.000
1088.981	175.000
1089.227	174.000
1089.473	178.000
1089.719	177.000
1089.964	174.000
1090.210	178.000
1090.456	174.000
1090.701	176.000
1090.947	177.000
1091.193	173.000
1091.438	176.000
1091.684	174.000
1091.930	175.000
1092.175	176.000
1092.421	175.000
1092.666	176.000
1092.912	174.000
1093.158	175.000
1093.403	175.000
1093.649	173.000
1093.894	177.000
1094.140	176.000
1094.386	174.000
1094.631	174.000
1094.877	176.000
1095.122	177.000
1095.368	174.000
1095.613	174.000
1095.859	174.000
1096.104	176.000
1096.350	177.000
1096.595	172.000
1096.841	176.000
1097.086	176.000
1097.332	176.000
1097.577	175.000
1097.823	173.000
1098.068	178.000
1098.314	177.000
1098.559	174.000
1098.805	175.000
1099.050	176.000
1099.295	175.000
1099.541	177.000
1099.786	177.000
+++++End Spectral Data+++++
