Spectrometer Data
EN
------------------------------
Saving Time:Wed, Jan 21, 2026 14:00:01
Device Name:Aurora 4000
Version Info:V9_84
Serial Number:220120190816098402001100
Integral Time(æs):5000
Avg Count:1
Smoothness:0
Data Type:(0 1)Wavelength-Delete Dark
X-Axis Unit:nm
Y-Axis Unit:counts
Pixel Count:3482
Reserve0:250
Other Description:
+++++Begin Spectral Data+++++
200.149	2.000
200.421	-3.000
200.693	-5.000
200.966	-3.000
201.238	0.000
201.510	0.000
201.782	-4.000
202.054	-5.000
202.326	-2.000
202.598	-5.000
202.870	-1.000
203.142	-5.000
203.414	-7.000
203.686	-4.000
203.958	-2.000
204.230	-2.000
204.502	-2.000
204.774	-2.000
205.046	0.000
205.318	-1.000
205.590	-3.000
205.861	-3.000
206.133	-1.000
206.405	-1.000
206.677	-3.000
206.949	-4.000
207.221	-1.000
207.493	-4.000
207.765	-1.000
208.037	-2.000
208.308	1.000
208.580	1.000
208.852	-2.000
209.124	-2.000
209.396	-1.000
209.668	-2.000
209.939	-1.000
210.211	-1.000
210.483	-5.000
210.755	-5.000
211.027	0.000
211.298	-2.000
211.570	2.000
211.842	1.000
212.114	-4.000
212.385	-1.000
212.657	-1.000
212.929	0.000
213.200	-1.000
213.472	0.000
213.744	-3.000
214.016	-4.000
214.287	-5.000
214.559	-1.000
214.831	2.000
215.102	1.000
215.374	4.000
215.645	0.000
215.917	3.000
216.189	4.000
216.460	1.000
216.732	-5.000
217.004	-2.000
217.275	-6.000
217.547	2.000
217.818	-4.000
218.090	-2.000
218.361	-3.000
218.633	0.000
218.904	-5.000
219.176	-1.000
219.448	-2.000
219.719	-2.000
219.991	-4.000
220.262	-3.000
220.534	-4.000
220.805	-3.000
221.076	-2.000
221.348	-3.000
221.619	2.000
221.891	-4.000
222.162	3.000
222.434	1.000
222.705	1.000
222.977	0.000
223.248	-6.000
223.519	-4.000
223.791	0.000
224.062	-7.000
224.333	1.000
224.605	-2.000
224.876	-1.000
225.148	-3.000
225.419	1.000
225.690	-2.000
225.962	4.000
226.233	-4.000
226.504	-3.000
226.775	1.000
227.047	-4.000
227.318	-2.000
227.589	1.000
227.861	-5.000
228.132	-3.000
228.403	-1.000
228.674	-4.000
228.946	-3.000
229.217	0.000
229.488	-2.000
229.759	-3.000
230.030	-4.000
230.302	-1.000
230.573	0.000
230.844	1.000
231.115	1.000
231.386	0.000
231.657	-1.000
231.929	-4.000
232.200	0.000
232.471	-4.000
232.742	-4.000
233.013	-7.000
233.284	-4.000
233.555	1.000
233.826	-1.000
234.097	-7.000
234.369	0.000
234.640	3.000
234.911	0.000
235.182	-2.000
235.453	2.000
235.724	-1.000
235.995	-2.000
236.266	0.000
236.537	-4.000
236.808	-1.000
237.079	-3.000
237.350	-3.000
237.621	2.000
237.892	-2.000
238.163	-5.000
238.434	-4.000
238.705	4.000
238.975	-2.000
239.246	-2.000
239.517	-3.000
239.788	-2.000
240.059	1.000
240.330	-6.000
240.601	-5.000
240.872	-2.000
241.143	2.000
241.413	1.000
241.684	-1.000
241.955	-1.000
242.226	2.000
242.497	-2.000
242.768	-2.000
243.038	-4.000
243.309	-3.000
243.580	1.000
243.851	3.000
244.122	0.000
244.392	-5.000
244.663	-1.000
244.934	-2.000
245.205	1.000
245.475	-3.000
245.746	3.000
246.017	-3.000
246.288	-5.000
246.558	2.000
246.829	-4.000
247.100	-4.000
247.370	-2.000
247.641	-2.000
247.912	-2.000
248.182	-4.000
248.453	1.000
248.724	2.000
248.994	-5.000
249.265	-1.000
249.535	-3.000
249.806	-4.000
250.077	-4.000
250.347	-2.000
250.618	0.000
250.888	-2.000
251.159	-3.000
251.430	-3.000
251.700	-4.000
251.971	-4.000
252.241	0.000
252.512	0.000
252.782	3.000
253.053	-3.000
253.323	-2.000
253.594	2.000
253.864	-5.000
254.135	-3.000
254.405	-5.000
254.676	-4.000
254.946	-7.000
255.216	-3.000
255.487	-3.000
255.757	-4.000
256.028	-3.000
256.298	-3.000
256.569	-2.000
256.839	-2.000
257.109	-1.000
257.380	1.000
257.650	0.000
257.920	-3.000
258.191	-2.000
258.461	-1.000
258.731	-3.000
259.002	-5.000
259.272	-7.000
259.542	-4.000
259.813	-1.000
260.083	-3.000
260.353	3.000
260.624	-3.000
260.894	0.000
261.164	5.000
261.434	-1.000
261.705	0.000
261.975	-3.000
262.245	-1.000
262.515	-2.000
262.786	2.000
263.056	-1.000
263.326	1.000
263.596	1.000
263.866	3.000
264.137	-1.000
264.407	3.000
264.677	-2.000
264.947	-1.000
265.217	-2.000
265.487	1.000
265.757	-2.000
266.027	2.000
266.298	-6.000
266.568	-1.000
266.838	-1.000
267.108	-2.000
267.378	-5.000
267.648	-1.000
267.918	0.000
268.188	-1.000
268.458	-2.000
268.728	-1.000
268.998	-2.000
269.268	-3.000
269.538	-1.000
269.808	-3.000
270.078	3.000
270.348	-4.000
270.618	-3.000
270.888	-2.000
271.158	-6.000
271.428	-4.000
271.698	-5.000
271.968	2.000
272.238	-3.000
272.508	-7.000
272.778	-7.000
273.048	-5.000
273.318	-6.000
273.587	-5.000
273.857	-6.000
274.127	-1.000
274.397	-1.000
274.667	-5.000
274.937	-7.000
275.207	-2.000
275.476	-4.000
275.746	-4.000
276.016	-2.000
276.286	-1.000
276.556	-6.000
276.826	0.000
277.095	1.000
277.365	-2.000
277.635	1.000
277.905	-2.000
278.174	-2.000
278.444	-1.000
278.714	-1.000
278.984	-6.000
279.253	-2.000
279.523	1.000
279.793	-3.000
280.062	-2.000
280.332	-3.000
280.602	-1.000
280.871	-4.000
281.141	-5.000
281.411	-1.000
281.680	-5.000
281.950	1.000
282.220	-9.000
282.489	-11.000
282.759	0.000
283.029	-5.000
283.298	3.000
283.568	-2.000
283.837	-3.000
284.107	1.000
284.376	-1.000
284.646	-2.000
284.916	4.000
285.185	-1.000
285.455	-2.000
285.724	-4.000
285.994	-5.000
286.263	0.000
286.533	-1.000
286.802	0.000
287.072	-4.000
287.341	-2.000
287.611	-1.000
287.880	-2.000
288.149	-3.000
288.419	-1.000
288.688	-3.000
288.958	-1.000
289.227	-2.000
289.497	-2.000
289.766	-2.000
290.035	3.000
290.305	1.000
290.574	1.000
290.844	-4.000
291.113	-3.000
291.382	-8.000
291.652	-2.000
291.921	1.000
292.190	0.000
292.460	0.000
292.729	-4.000
292.998	-5.000
293.268	-5.000
293.537	-7.000
293.806	-2.000
294.075	-4.000
294.345	-4.000
294.614	-5.000
294.883	-3.000
295.152	-4.000
295.422	-2.000
295.691	0.000
295.960	1.000
296.229	-5.000
296.498	0.000
296.768	0.000
297.037	0.000
297.306	-4.000
297.575	0.000
297.844	-1.000
298.114	3.000
298.383	-4.000
298.652	-5.000
298.921	-2.000
299.190	-7.000
299.459	-6.000
299.728	-5.000
299.997	-3.000
300.266	5.000
300.536	-3.000
300.805	-2.000
301.074	-4.000
301.343	-5.000
301.612	1.000
301.881	-2.000
302.150	-6.000
302.419	-1.000
302.688	2.000
302.957	0.000
303.226	-2.000
303.495	-6.000
303.764	-1.000
304.033	-3.000
304.302	-4.000
304.571	-5.000
304.840	-2.000
305.109	-5.000
305.378	-2.000
305.646	-2.000
305.915	-2.000
306.184	-2.000
306.453	-2.000
306.722	2.000
306.991	-6.000
307.260	-3.000
307.529	-1.000
307.798	-3.000
308.066	1.000
308.335	-4.000
308.604	-1.000
308.873	-1.000
309.142	0.000
309.411	-2.000
309.679	1.000
309.948	0.000
310.217	2.000
310.486	-4.000
310.755	-4.000
311.023	-7.000
311.292	-4.000
311.561	1.000
311.830	-2.000
312.098	-3.000
312.367	0.000
312.636	-8.000
312.904	-10.000
313.173	-3.000
313.442	-1.000
313.711	-2.000
313.979	0.000
314.248	0.000
314.517	-3.000
314.785	-1.000
315.054	-5.000
315.322	0.000
315.591	-2.000
315.860	-8.000
316.128	-4.000
316.397	-4.000
316.665	-11.000
316.934	-4.000
317.203	-3.000
317.471	0.000
317.740	-3.000
318.008	-5.000
318.277	-1.000
318.545	-3.000
318.814	-4.000
319.082	-4.000
319.351	-2.000
319.619	-3.000
319.888	-2.000
320.156	-4.000
320.425	-1.000
320.693	-5.000
320.962	-6.000
321.230	-6.000
321.499	-6.000
321.767	-4.000
322.036	-5.000
322.304	-4.000
322.573	-6.000
322.841	0.000
323.109	-4.000
323.378	0.000
323.646	0.000
323.914	1.000
324.183	-1.000
324.451	-5.000
324.720	-6.000
324.988	1.000
325.256	-3.000
325.525	0.000
325.793	-4.000
326.061	-3.000
326.330	-1.000
326.598	-3.000
326.866	-1.000
327.134	-1.000
327.403	-6.000
327.671	-5.000
327.939	-1.000
328.207	-2.000
328.476	-3.000
328.744	-6.000
329.012	-7.000
329.280	-8.000
329.549	-7.000
329.817	-9.000
330.085	-1.000
330.353	-5.000
330.621	3.000
330.889	0.000
331.158	2.000
331.426	-4.000
331.694	-5.000
331.962	-2.000
332.230	-4.000
332.498	-1.000
332.766	0.000
333.035	-5.000
333.303	-5.000
333.571	-3.000
333.839	-5.000
334.107	0.000
334.375	-2.000
334.643	-6.000
334.911	-7.000
335.179	-6.000
335.447	-6.000
335.715	-9.000
335.983	-7.000
336.251	1.000
336.519	6.000
336.787	32.000
337.055	29.000
337.323	7.000
337.591	-3.000
337.859	-6.000
338.127	-5.000
338.395	-2.000
338.663	-3.000
338.931	-3.000
339.199	-2.000
339.467	-4.000
339.734	0.000
340.002	-1.000
340.270	-2.000
340.538	-3.000
340.806	-6.000
341.074	0.000
341.342	-3.000
341.610	1.000
341.877	-1.000
342.145	-2.000
342.413	-4.000
342.681	-5.000
342.949	-1.000
343.216	-5.000
343.484	-8.000
343.752	-1.000
344.020	-1.000
344.288	3.000
344.555	-6.000
344.823	-4.000
345.091	-1.000
345.359	-4.000
345.626	-6.000
345.894	-2.000
346.162	-1.000
346.429	-2.000
346.697	-5.000
346.965	-4.000
347.232	-8.000
347.500	-4.000
347.768	-4.000
348.035	-2.000
348.303	-5.000
348.571	-3.000
348.838	-3.000
349.106	-4.000
349.374	-4.000
349.641	-7.000
349.909	-4.000
350.176	-3.000
350.444	-4.000
350.712	-6.000
350.979	-2.000
351.247	-3.000
351.514	-5.000
351.782	-6.000
352.049	-3.000
352.317	-6.000
352.584	-10.000
352.852	-10.000
353.119	-9.000
353.387	-5.000
353.654	-9.000
353.922	-8.000
354.189	-7.000
354.457	-8.000
354.724	-5.000
354.992	-3.000
355.259	-10.000
355.526	-5.000
355.794	-10.000
356.061	-8.000
356.329	-4.000
356.596	-8.000
356.863	-1.000
357.131	15.000
357.398	25.000
357.666	26.000
357.933	7.000
358.200	-9.000
358.468	-7.000
358.735	-4.000
359.002	-9.000
359.270	-4.000
359.537	-3.000
359.804	-3.000
360.071	-2.000
360.339	-1.000
360.606	-1.000
360.873	-3.000
361.141	-4.000
361.408	-7.000
361.675	-3.000
361.942	-6.000
362.210	1.000
362.477	-4.000
362.744	-2.000
363.011	-4.000
363.278	-4.000
363.546	-3.000
363.813	-3.000
364.080	-9.000
364.347	-5.000
364.614	-5.000
364.881	-5.000
365.148	-4.000
365.416	-2.000
365.683	-4.000
365.950	-3.000
366.217	-6.000
366.484	-6.000
366.751	-5.000
367.018	-5.000
367.285	-4.000
367.552	-6.000
367.819	-2.000
368.086	-5.000
368.354	0.000
368.621	-5.000
368.888	-5.000
369.155	-2.000
369.422	-3.000
369.689	-3.000
369.956	-3.000
370.223	-9.000
370.490	-7.000
370.757	-7.000
371.024	-6.000
371.290	-6.000
371.557	-5.000
371.824	-3.000
372.091	-4.000
372.358	-5.000
372.625	-5.000
372.892	-8.000
373.159	-9.000
373.426	-6.000
373.693	-4.000
373.960	-4.000
374.226	-7.000
374.493	-6.000
374.760	-8.000
375.027	-7.000
375.294	-3.000
375.561	5.000
375.827	-7.000
376.094	-4.000
376.361	-7.000
376.628	-4.000
376.895	-1.000
377.161	0.000
377.428	-4.000
377.695	-2.000
377.962	-2.000
378.228	-6.000
378.495	-4.000
378.762	-4.000
379.029	-8.000
379.295	-3.000
379.562	-5.000
379.829	-1.000
380.095	7.000
380.362	2.000
380.629	-2.000
380.896	-5.000
381.162	-7.000
381.429	-8.000
381.695	-5.000
381.962	-8.000
382.229	-7.000
382.495	-4.000
382.762	-6.000
383.029	-3.000
383.295	-6.000
383.562	-3.000
383.828	-3.000
384.095	0.000
384.361	-5.000
384.628	-6.000
384.895	-1.000
385.161	-1.000
385.428	-5.000
385.694	-4.000
385.961	-7.000
386.227	-1.000
386.494	-5.000
386.760	-3.000
387.027	-5.000
387.293	0.000
387.560	0.000
387.826	-2.000
388.092	1.000
388.359	-6.000
388.625	-6.000
388.892	-9.000
389.158	-2.000
389.425	-1.000
389.691	-4.000
389.957	-6.000
390.224	-1.000
390.490	-4.000
390.757	-3.000
391.023	-3.000
391.289	-8.000
391.556	-1.000
391.822	-1.000
392.088	-6.000
392.355	-5.000
392.621	-6.000
392.887	-3.000
393.154	-4.000
393.420	-3.000
393.686	-8.000
393.952	-7.000
394.219	-5.000
394.485	-2.000
394.751	-6.000
395.017	-3.000
395.284	-2.000
395.550	-7.000
395.816	-7.000
396.082	-6.000
396.349	-1.000
396.615	-4.000
396.881	-5.000
397.147	-3.000
397.413	-3.000
397.679	-4.000
397.946	-9.000
398.212	-8.000
398.478	-7.000
398.744	-6.000
399.010	-8.000
399.276	-8.000
399.542	-2.000
399.808	-4.000
400.075	-5.000
400.341	-2.000
400.607	-5.000
400.873	-1.000
401.139	-1.000
401.405	-2.000
401.671	-4.000
401.937	2.000
402.203	-4.000
402.469	-3.000
402.735	-2.000
403.001	-1.000
403.267	-6.000
403.533	0.000
403.799	0.000
404.065	-3.000
404.331	0.000
404.597	-7.000
404.863	-6.000
405.129	-3.000
405.395	-3.000
405.661	-8.000
405.927	-7.000
406.192	-4.000
406.458	0.000
406.724	-4.000
406.990	-3.000
407.256	-3.000
407.522	-8.000
407.788	-2.000
408.054	-4.000
408.319	-3.000
408.585	-3.000
408.851	0.000
409.117	-3.000
409.383	-6.000
409.649	-6.000
409.914	-6.000
410.180	-6.000
410.446	-4.000
410.712	-2.000
410.977	-6.000
411.243	-7.000
411.509	-3.000
411.775	-9.000
412.040	-4.000
412.306	-5.000
412.572	-2.000
412.838	-7.000
413.103	-5.000
413.369	-4.000
413.635	-6.000
413.900	-7.000
414.166	-3.000
414.432	-5.000
414.697	-2.000
414.963	-5.000
415.229	4.000
415.494	2.000
415.760	-4.000
416.025	-4.000
416.291	-1.000
416.557	-4.000
416.822	-7.000
417.088	-2.000
417.353	-2.000
417.619	-3.000
417.884	-9.000
418.150	-6.000
418.416	-4.000
418.681	-1.000
418.947	-4.000
419.212	-4.000
419.478	-6.000
419.743	-4.000
420.009	-6.000
420.274	-5.000
420.540	-3.000
420.805	-7.000
421.071	-4.000
421.336	-1.000
421.601	-5.000
421.867	-2.000
422.132	-6.000
422.398	2.000
422.663	-2.000
422.929	-2.000
423.194	-4.000
423.459	0.000
423.725	-9.000
423.990	-5.000
424.256	-2.000
424.521	-2.000
424.786	-4.000
425.052	0.000
425.317	-2.000
425.582	-3.000
425.848	-4.000
426.113	-6.000
426.378	-3.000
426.643	-6.000
426.909	-1.000
427.174	-2.000
427.439	1.000
427.705	-4.000
427.970	-2.000
428.235	-3.000
428.500	-2.000
428.766	-4.000
429.031	-4.000
429.296	-6.000
429.561	-2.000
429.826	2.000
430.092	-1.000
430.357	-3.000
430.622	1.000
430.887	-1.000
431.152	-1.000
431.417	-4.000
431.683	-3.000
431.948	-3.000
432.213	0.000
432.478	2.000
432.743	1.000
433.008	-2.000
433.273	-4.000
433.538	-2.000
433.803	-4.000
434.069	-7.000
434.334	-4.000
434.599	-6.000
434.864	-4.000
435.129	-6.000
435.394	-8.000
435.659	0.000
435.924	-3.000
436.189	0.000
436.454	-3.000
436.719	-7.000
436.984	-6.000
437.249	-2.000
437.514	-2.000
437.779	-6.000
438.044	-6.000
438.309	-9.000
438.574	-4.000
438.838	-5.000
439.103	-6.000
439.368	-5.000
439.633	-5.000
439.898	-4.000
440.163	-4.000
440.428	-4.000
440.693	0.000
440.958	-5.000
441.222	-4.000
441.487	-3.000
441.752	-1.000
442.017	-5.000
442.282	-3.000
442.547	-5.000
442.811	-2.000
443.076	-4.000
443.341	0.000
443.606	-4.000
443.871	-2.000
444.135	-3.000
444.400	-4.000
444.665	-3.000
444.930	-3.000
445.194	0.000
445.459	-3.000
445.724	-3.000
445.989	-5.000
446.253	-1.000
446.518	-4.000
446.783	-2.000
447.047	0.000
447.312	-4.000
447.577	-3.000
447.841	-1.000
448.106	-7.000
448.371	-6.000
448.635	-3.000
448.900	-6.000
449.165	-3.000
449.429	-4.000
449.694	-8.000
449.958	-10.000
450.223	-6.000
450.488	-3.000
450.752	-5.000
451.017	-4.000
451.281	-1.000
451.546	0.000
451.810	-1.000
452.075	-3.000
452.339	-3.000
452.604	0.000
452.868	0.000
453.133	-5.000
453.397	-5.000
453.662	-7.000
453.926	-3.000
454.191	0.000
454.455	-4.000
454.720	-1.000
454.984	-4.000
455.249	-2.000
455.513	0.000
455.778	-5.000
456.042	-3.000
456.306	-6.000
456.571	-1.000
456.835	-1.000
457.100	-6.000
457.364	-9.000
457.628	-6.000
457.893	-2.000
458.157	-6.000
458.421	-5.000
458.686	-5.000
458.950	-3.000
459.214	-6.000
459.479	3.000
459.743	-3.000
460.007	-10.000
460.272	-7.000
460.536	-6.000
460.800	-2.000
461.064	-3.000
461.329	-3.000
461.593	-2.000
461.857	-2.000
462.121	-1.000
462.386	-5.000
462.650	-6.000
462.914	-7.000
463.178	-3.000
463.442	1.000
463.707	-3.000
463.971	-4.000
464.235	-1.000
464.499	1.000
464.763	-3.000
465.027	0.000
465.292	-2.000
465.556	-5.000
465.820	-4.000
466.084	-5.000
466.348	-1.000
466.612	1.000
466.876	-2.000
467.140	-5.000
467.404	-3.000
467.668	-5.000
467.933	-2.000
468.197	-2.000
468.461	-1.000
468.725	-5.000
468.989	-5.000
469.253	-1.000
469.517	-2.000
469.781	-2.000
470.045	-4.000
470.309	-4.000
470.573	-6.000
470.837	-8.000
471.101	-5.000
471.365	3.000
471.629	-3.000
471.892	-4.000
472.156	0.000
472.420	-4.000
472.684	-2.000
472.948	-6.000
473.212	-3.000
473.476	-4.000
473.740	-5.000
474.004	0.000
474.268	-3.000
474.531	-2.000
474.795	-5.000
475.059	-5.000
475.323	-8.000
475.587	-3.000
475.851	-6.000
476.114	-2.000
476.378	-8.000
476.642	-8.000
476.906	-7.000
477.170	3.000
477.433	-2.000
477.697	-5.000
477.961	-8.000
478.225	-3.000
478.488	-6.000
478.752	-4.000
479.016	-8.000
479.280	-5.000
479.543	-7.000
479.807	-7.000
480.071	-7.000
480.334	-7.000
480.598	-7.000
480.862	-5.000
481.125	-5.000
481.389	-7.000
481.653	-1.000
481.916	-3.000
482.180	-4.000
482.444	1.000
482.707	-4.000
482.971	-1.000
483.234	-4.000
483.498	-6.000
483.762	-5.000
484.025	-4.000
484.289	-2.000
484.552	-3.000
484.816	-1.000
485.079	-3.000
485.343	-4.000
485.607	-2.000
485.870	-1.000
486.134	-2.000
486.397	-3.000
486.661	0.000
486.924	-5.000
487.188	-3.000
487.451	-4.000
487.715	0.000
487.978	-4.000
488.241	-1.000
488.505	-3.000
488.768	-4.000
489.032	-2.000
489.295	-3.000
489.559	-6.000
489.822	-3.000
490.085	1.000
490.349	0.000
490.612	-3.000
490.876	-3.000
491.139	-3.000
491.402	-3.000
491.666	-3.000
491.929	-4.000
492.192	-1.000
492.456	-1.000
492.719	-2.000
492.982	1.000
493.246	-5.000
493.509	-6.000
493.772	-5.000
494.035	-8.000
494.299	-2.000
494.562	-2.000
494.825	-3.000
495.088	-5.000
495.352	-3.000
495.615	-2.000
495.878	-3.000
496.141	-4.000
496.405	-2.000
496.668	-6.000
496.931	-8.000
497.194	-4.000
497.457	0.000
497.721	-2.000
497.984	-4.000
498.247	1.000
498.510	-3.000
498.773	-8.000
499.036	-2.000
499.299	-3.000
499.562	-5.000
499.826	-6.000
500.089	-5.000
500.352	-4.000
500.615	-4.000
500.878	-4.000
501.141	-4.000
501.404	-6.000
501.667	2.000
501.930	-3.000
502.193	-4.000
502.456	-3.000
502.719	-6.000
502.982	-2.000
503.245	-5.000
503.508	2.000
503.771	2.000
504.034	-1.000
504.297	-2.000
504.560	-2.000
504.823	-3.000
505.086	-3.000
505.349	-1.000
505.612	-4.000
505.875	-8.000
506.138	-3.000
506.401	-4.000
506.664	-5.000
506.927	-3.000
507.189	-6.000
507.452	-5.000
507.715	-4.000
507.978	-2.000
508.241	5.000
508.504	-1.000
508.767	-1.000
509.029	-4.000
509.292	-5.000
509.555	-7.000
509.818	-5.000
510.081	-6.000
510.343	-6.000
510.606	-5.000
510.869	0.000
511.132	-1.000
511.395	0.000
511.657	-2.000
511.920	-3.000
512.183	0.000
512.446	-1.000
512.708	-2.000
512.971	-1.000
513.234	-3.000
513.496	-2.000
513.759	-6.000
514.022	-5.000
514.284	-7.000
514.547	-9.000
514.810	-6.000
515.072	-2.000
515.335	-8.000
515.598	-4.000
515.860	-5.000
516.123	-6.000
516.386	-6.000
516.648	-2.000
516.911	-9.000
517.173	-7.000
517.436	-8.000
517.698	0.000
517.961	-10.000
518.224	-1.000
518.486	-1.000
518.749	-4.000
519.011	-6.000
519.274	3.000
519.536	1.000
519.799	-9.000
520.061	-6.000
520.324	-2.000
520.586	-6.000
520.849	-3.000
521.111	-4.000
521.374	-4.000
521.636	-6.000
521.899	-3.000
522.161	-3.000
522.423	-3.000
522.686	-2.000
522.948	-4.000
523.211	1.000
523.473	-2.000
523.736	-8.000
523.998	-1.000
524.260	-7.000
524.523	-5.000
524.785	-2.000
525.047	0.000
525.310	-7.000
525.572	-4.000
525.834	-9.000
526.097	-7.000
526.359	-6.000
526.621	-6.000
526.884	-4.000
527.146	-5.000
527.408	-5.000
527.670	1.000
527.933	-3.000
528.195	-4.000
528.457	-9.000
528.719	-6.000
528.982	-4.000
529.244	-4.000
529.506	-5.000
529.768	-5.000
530.031	-2.000
530.293	-3.000
530.555	-5.000
530.817	-4.000
531.079	-3.000
531.342	-3.000
531.604	-3.000
531.866	-2.000
532.128	-5.000
532.390	-2.000
532.652	-5.000
532.914	-2.000
533.176	0.000
533.439	-4.000
533.701	-2.000
533.963	-5.000
534.225	-3.000
534.487	-3.000
534.749	-6.000
535.011	-4.000
535.273	0.000
535.535	-1.000
535.797	-4.000
536.059	-2.000
536.321	-4.000
536.583	-2.000
536.845	-6.000
537.107	-4.000
537.369	-4.000
537.631	-3.000
537.893	-6.000
538.155	-3.000
538.417	-5.000
538.679	-7.000
538.941	-7.000
539.203	-11.000
539.465	-8.000
539.727	-1.000
539.989	1.000
540.251	4.000
540.512	-3.000
540.774	-3.000
541.036	-3.000
541.298	-4.000
541.560	-4.000
541.822	-4.000
542.084	-3.000
542.345	-6.000
542.607	-4.000
542.869	-1.000
543.131	-1.000
543.393	-7.000
543.655	-4.000
543.916	-5.000
544.178	-6.000
544.440	-3.000
544.702	-4.000
544.963	-10.000
545.225	-6.000
545.487	-4.000
545.749	-3.000
546.010	-2.000
546.272	-2.000
546.534	-4.000
546.795	0.000
547.057	-3.000
547.319	-2.000
547.581	-6.000
547.842	0.000
548.104	-3.000
548.366	-5.000
548.627	-5.000
548.889	-7.000
549.150	-2.000
549.412	-1.000
549.674	-5.000
549.935	-11.000
550.197	-7.000
550.459	-7.000
550.720	-4.000
550.982	-4.000
551.243	-2.000
551.505	-4.000
551.766	-7.000
552.028	-1.000
552.289	-9.000
552.551	-5.000
552.813	-3.000
553.074	-2.000
553.336	-2.000
553.597	-2.000
553.859	-6.000
554.120	-2.000
554.382	-5.000
554.643	-3.000
554.904	-4.000
555.166	-5.000
555.427	-6.000
555.689	-9.000
555.950	-5.000
556.212	-1.000
556.473	-7.000
556.735	-7.000
556.996	-7.000
557.257	-7.000
557.519	-4.000
557.780	-4.000
558.041	-5.000
558.303	-8.000
558.564	-7.000
558.826	-6.000
559.087	-3.000
559.348	-6.000
559.609	-7.000
559.871	-6.000
560.132	-6.000
560.393	-5.000
560.655	-9.000
560.916	-5.000
561.177	-8.000
561.439	-9.000
561.700	-6.000
561.961	-3.000
562.222	-2.000
562.484	0.000
562.745	1.000
563.006	-5.000
563.267	-1.000
563.528	-5.000
563.790	1.000
564.051	-9.000
564.312	-6.000
564.573	-3.000
564.834	-6.000
565.095	-1.000
565.357	-5.000
565.618	-3.000
565.879	-4.000
566.140	-3.000
566.401	-6.000
566.662	-2.000
566.923	-3.000
567.184	-4.000
567.446	-4.000
567.707	-3.000
567.968	-8.000
568.229	-8.000
568.490	-8.000
568.751	-9.000
569.012	-4.000
569.273	-3.000
569.534	-3.000
569.795	-6.000
570.056	-5.000
570.317	-10.000
570.578	-7.000
570.839	-7.000
571.100	-2.000
571.361	-7.000
571.622	-4.000
571.883	-5.000
572.144	-1.000
572.405	-4.000
572.666	-2.000
572.927	-8.000
573.188	-8.000
573.449	-4.000
573.709	-8.000
573.970	-7.000
574.231	-4.000
574.492	-1.000
574.753	-3.000
575.014	-6.000
575.275	-2.000
575.536	-5.000
575.796	-4.000
576.057	1.000
576.318	-1.000
576.579	-4.000
576.840	-2.000
577.100	-4.000
577.361	-3.000
577.622	-5.000
577.883	-8.000
578.144	-4.000
578.404	-2.000
578.665	-3.000
578.926	-2.000
579.187	-1.000
579.447	-7.000
579.708	-3.000
579.969	-7.000
580.229	-6.000
580.490	-4.000
580.751	-5.000
581.012	-3.000
581.272	-9.000
581.533	-6.000
581.794	-6.000
582.054	-4.000
582.315	-3.000
582.576	2.000
582.836	-6.000
583.097	-1.000
583.357	-8.000
583.618	-2.000
583.879	1.000
584.139	-3.000
584.400	-3.000
584.660	0.000
584.921	-5.000
585.181	-6.000
585.442	-7.000
585.703	-6.000
585.963	-2.000
586.224	-3.000
586.484	-3.000
586.745	-9.000
587.005	-6.000
587.266	-1.000
587.526	-5.000
587.787	-4.000
588.047	-8.000
588.308	-7.000
588.568	-9.000
588.829	-3.000
589.089	-4.000
589.349	-2.000
589.610	-2.000
589.870	-5.000
590.131	-6.000
590.391	-4.000
590.651	-3.000
590.912	-4.000
591.172	-6.000
591.433	-2.000
591.693	-2.000
591.953	-6.000
592.214	-5.000
592.474	-2.000
592.734	-6.000
592.995	-6.000
593.255	-5.000
593.515	-7.000
593.776	-4.000
594.036	-9.000
594.296	-4.000
594.557	-3.000
594.817	-4.000
595.077	-2.000
595.337	-4.000
595.598	-3.000
595.858	-8.000
596.118	-2.000
596.378	-4.000
596.639	-9.000
596.899	-5.000
597.159	-12.000
597.419	-1.000
597.679	2.000
597.939	-4.000
598.200	-5.000
598.460	-8.000
598.720	-8.000
598.980	-3.000
599.240	-4.000
599.500	-4.000
599.761	-8.000
600.021	-8.000
600.281	-3.000
600.541	-4.000
600.801	-4.000
601.061	-5.000
601.321	-7.000
601.581	-5.000
601.841	-5.000
602.101	-8.000
602.361	-5.000
602.621	-7.000
602.881	-7.000
603.142	-7.000
603.402	-7.000
603.662	-5.000
603.922	-2.000
604.182	-7.000
604.442	-7.000
604.702	-5.000
604.961	-9.000
605.221	-9.000
605.481	-8.000
605.741	-6.000
606.001	-7.000
606.261	-5.000
606.521	-7.000
606.781	-3.000
607.041	-4.000
607.301	-2.000
607.561	-8.000
607.821	-4.000
608.081	-1.000
608.340	-3.000
608.600	-3.000
608.860	-1.000
609.120	-3.000
609.380	-1.000
609.640	-5.000
609.899	-5.000
610.159	-3.000
610.419	-9.000
610.679	-2.000
610.939	-9.000
611.199	-3.000
611.458	-5.000
611.718	-5.000
611.978	-6.000
612.238	-9.000
612.497	-5.000
612.757	-4.000
613.017	-2.000
613.277	-4.000
613.536	-2.000
613.796	0.000
614.056	3.000
614.315	2.000
614.575	-5.000
614.835	-4.000
615.094	-7.000
615.354	-2.000
615.614	-7.000
615.873	-6.000
616.133	-2.000
616.393	-4.000
616.652	-5.000
616.912	-4.000
617.171	-3.000
617.431	-4.000
617.691	-1.000
617.950	-5.000
618.210	-5.000
618.469	-3.000
618.729	-3.000
618.989	-6.000
619.248	-1.000
619.508	-5.000
619.767	-1.000
620.027	-4.000
620.286	-6.000
620.546	-1.000
620.805	-6.000
621.065	-5.000
621.324	-3.000
621.584	-5.000
621.843	0.000
622.103	-3.000
622.362	-3.000
622.622	0.000
622.881	-3.000
623.140	-2.000
623.400	-2.000
623.659	-2.000
623.919	-7.000
624.178	-5.000
624.437	-6.000
624.697	-5.000
624.956	-1.000
625.216	-1.000
625.475	2.000
625.734	-2.000
625.994	-1.000
626.253	-2.000
626.512	1.000
626.772	2.000
627.031	-1.000
627.290	-1.000
627.550	-3.000
627.809	0.000
628.068	-1.000
628.327	-6.000
628.587	-5.000
628.846	-2.000
629.105	-3.000
629.364	-2.000
629.624	-5.000
629.883	-7.000
630.142	-6.000
630.401	0.000
630.661	-5.000
630.920	-5.000
631.179	-4.000
631.438	0.000
631.697	-4.000
631.957	-4.000
632.216	-1.000
632.475	-6.000
632.734	-3.000
632.993	-3.000
633.252	1.000
633.511	-3.000
633.770	-3.000
634.030	1.000
634.289	-3.000
634.548	-4.000
634.807	-5.000
635.066	-3.000
635.325	-4.000
635.584	-2.000
635.843	-5.000
636.102	-3.000
636.361	-7.000
636.620	-4.000
636.879	-6.000
637.138	-4.000
637.397	-4.000
637.656	-3.000
637.915	-2.000
638.174	-2.000
638.433	-6.000
638.692	1.000
638.951	-4.000
639.210	-1.000
639.469	-6.000
639.728	0.000
639.987	-4.000
640.246	-1.000
640.505	-3.000
640.764	4.000
641.023	3.000
641.282	-1.000
641.540	-2.000
641.799	-6.000
642.058	-6.000
642.317	0.000
642.576	-5.000
642.835	1.000
643.094	-5.000
643.352	-3.000
643.611	-1.000
643.870	-4.000
644.129	1.000
644.388	-2.000
644.646	1.000
644.905	0.000
645.164	1.000
645.423	2.000
645.682	-5.000
645.940	-1.000
646.199	-7.000
646.458	-9.000
646.716	-4.000
646.975	-1.000
647.234	-1.000
647.493	-1.000
647.751	-2.000
648.010	-8.000
648.269	-4.000
648.527	-1.000
648.786	0.000
649.045	0.000
649.303	-6.000
649.562	-6.000
649.821	-3.000
650.079	-1.000
650.338	-2.000
650.597	-3.000
650.855	-8.000
651.114	-8.000
651.372	-2.000
651.631	2.000
651.890	-3.000
652.148	3.000
652.407	-5.000
652.665	-2.000
652.924	-2.000
653.182	-3.000
653.441	0.000
653.699	2.000
653.958	-3.000
654.216	-5.000
654.475	1.000
654.733	-1.000
654.992	-2.000
655.250	-5.000
655.509	-2.000
655.767	-5.000
656.026	-2.000
656.284	-6.000
656.543	-2.000
656.801	2.000
657.059	-4.000
657.318	-1.000
657.576	-2.000
657.835	-6.000
658.093	-4.000
658.351	1.000
658.610	-8.000
658.868	-4.000
659.127	-3.000
659.385	-2.000
659.643	0.000
659.902	-6.000
660.160	-4.000
660.418	-2.000
660.677	-4.000
660.935	-6.000
661.193	-2.000
661.452	0.000
661.710	-4.000
661.968	2.000
662.226	0.000
662.485	-1.000
662.743	-1.000
663.001	-1.000
663.259	1.000
663.518	3.000
663.776	-1.000
664.034	0.000
664.292	-2.000
664.550	-3.000
664.809	-5.000
665.067	-3.000
665.325	-7.000
665.583	-5.000
665.841	-4.000
666.099	-2.000
666.358	-1.000
666.616	-5.000
666.874	-1.000
667.132	-4.000
667.390	-5.000
667.648	1.000
667.906	1.000
668.164	-1.000
668.423	1.000
668.681	-2.000
668.939	0.000
669.197	-6.000
669.455	-1.000
669.713	-2.000
669.971	0.000
670.229	4.000
670.487	-1.000
670.745	-1.000
671.003	1.000
671.261	-7.000
671.519	-8.000
671.777	-5.000
672.035	0.000
672.293	2.000
672.551	-2.000
672.809	1.000
673.067	-3.000
673.325	-2.000
673.583	-3.000
673.841	0.000
674.099	-1.000
674.356	4.000
674.614	-4.000
674.872	-1.000
675.130	-1.000
675.388	-2.000
675.646	-1.000
675.904	-3.000
676.162	-4.000
676.419	-3.000
676.677	0.000
676.935	2.000
677.193	-1.000
677.451	2.000
677.709	2.000
677.966	1.000
678.224	-5.000
678.482	-6.000
678.740	-1.000
678.998	-1.000
679.255	-2.000
679.513	-4.000
679.771	-3.000
680.029	0.000
680.286	-4.000
680.544	-3.000
680.802	-2.000
681.059	-4.000
681.317	-3.000
681.575	-3.000
681.833	-6.000
682.090	-5.000
682.348	-2.000
682.606	-5.000
682.863	0.000
683.121	1.000
683.379	-3.000
683.636	-1.000
683.894	-7.000
684.151	-2.000
684.409	-5.000
684.667	-7.000
684.924	-8.000
685.182	1.000
685.439	0.000
685.697	0.000
685.955	1.000
686.212	1.000
686.470	-7.000
686.727	-2.000
686.985	-1.000
687.242	-3.000
687.500	-3.000
687.757	-3.000
688.015	-10.000
688.272	2.000
688.530	-2.000
688.787	1.000
689.045	-6.000
689.302	-5.000
689.560	-5.000
689.817	-3.000
690.075	-2.000
690.332	0.000
690.589	1.000
690.847	-8.000
691.104	-2.000
691.362	-5.000
691.619	-2.000
691.876	2.000
692.134	-7.000
692.391	-3.000
692.649	1.000
692.906	-3.000
693.163	-2.000
693.421	-6.000
693.678	-2.000
693.935	-1.000
694.193	-4.000
694.450	-5.000
694.707	-5.000
694.965	-3.000
695.222	-7.000
695.479	-4.000
695.736	0.000
695.994	0.000
696.251	1.000
696.508	-5.000
696.765	-6.000
697.023	-2.000
697.280	-5.000
697.537	0.000
697.794	-1.000
698.052	-1.000
698.309	3.000
698.566	-3.000
698.823	-3.000
699.080	-5.000
699.338	-6.000
699.595	0.000
699.852	-5.000
700.109	-3.000
700.366	3.000
700.623	0.000
700.880	-4.000
701.137	1.000
701.395	-6.000
701.652	-3.000
701.909	-3.000
702.166	-1.000
702.423	-3.000
702.680	-6.000
702.937	-1.000
703.194	0.000
703.451	-3.000
703.708	-3.000
703.965	-5.000
704.222	-2.000
704.479	-12.000
704.736	-4.000
704.993	-9.000
705.250	-4.000
705.507	-7.000
705.764	-2.000
706.021	-6.000
706.278	0.000
706.535	0.000
706.792	-2.000
707.049	0.000
707.306	1.000
707.563	-4.000
707.820	-2.000
708.077	-6.000
708.334	-2.000
708.591	-3.000
708.847	-7.000
709.104	-3.000
709.361	0.000
709.618	-5.000
709.875	-5.000
710.132	-8.000
710.389	-2.000
710.645	1.000
710.902	-5.000
711.159	0.000
711.416	-4.000
711.673	-5.000
711.930	-2.000
712.186	-3.000
712.443	-3.000
712.700	-5.000
712.957	-5.000
713.213	-8.000
713.470	-4.000
713.727	-1.000
713.984	-2.000
714.240	-3.000
714.497	-6.000
714.754	-3.000
715.011	-4.000
715.267	-3.000
715.524	-5.000
715.781	-3.000
716.037	-6.000
716.294	-6.000
716.551	-4.000
716.807	-5.000
717.064	-2.000
717.321	-7.000
717.577	0.000
717.834	-5.000
718.090	-4.000
718.347	-2.000
718.604	-7.000
718.860	-7.000
719.117	-10.000
719.373	-2.000
719.630	-4.000
719.886	-4.000
720.143	-2.000
720.400	1.000
720.656	-4.000
720.913	-4.000
721.169	-3.000
721.426	-6.000
721.682	-3.000
721.939	-4.000
722.195	-2.000
722.452	-6.000
722.708	-6.000
722.965	-6.000
723.221	-4.000
723.478	-5.000
723.734	-4.000
723.990	-6.000
724.247	-10.000
724.503	-5.000
724.760	-3.000
725.016	-2.000
725.273	-3.000
725.529	-1.000
725.785	-5.000
726.042	-4.000
726.298	-6.000
726.554	-6.000
726.811	-3.000
727.067	0.000
727.323	-3.000
727.580	-5.000
727.836	-5.000
728.092	-3.000
728.349	-5.000
728.605	-3.000
728.861	-4.000
729.118	-1.000
729.374	1.000
729.630	-4.000
729.886	-4.000
730.143	-3.000
730.399	-10.000
730.655	-10.000
730.911	-7.000
731.168	-4.000
731.424	-5.000
731.680	-3.000
731.936	-3.000
732.193	-3.000
732.449	-5.000
732.705	-1.000
732.961	-5.000
733.217	-3.000
733.473	-3.000
733.730	-8.000
733.986	-4.000
734.242	-4.000
734.498	-6.000
734.754	-6.000
735.010	-5.000
735.266	-1.000
735.522	-4.000
735.778	-1.000
736.035	-2.000
736.291	-5.000
736.547	0.000
736.803	1.000
737.059	-3.000
737.315	-6.000
737.571	-8.000
737.827	-7.000
738.083	-7.000
738.339	-3.000
738.595	-3.000
738.851	3.000
739.107	-6.000
739.363	-6.000
739.619	-6.000
739.875	-2.000
740.131	-1.000
740.387	-4.000
740.643	-3.000
740.899	-9.000
741.155	-4.000
741.411	-4.000
741.666	-7.000
741.922	-7.000
742.178	0.000
742.434	-1.000
742.690	-4.000
742.946	-3.000
743.202	1.000
743.458	-3.000
743.714	1.000
743.969	-6.000
744.225	-2.000
744.481	-2.000
744.737	-3.000
744.993	-1.000
745.249	-3.000
745.504	-5.000
745.760	-5.000
746.016	-4.000
746.272	0.000
746.527	0.000
746.783	-7.000
747.039	-2.000
747.295	-7.000
747.550	-2.000
747.806	-2.000
748.062	-7.000
748.318	-4.000
748.573	-8.000
748.829	-2.000
749.085	-3.000
749.340	-4.000
749.596	-4.000
749.852	-7.000
750.108	-5.000
750.363	-4.000
750.619	1.000
750.874	-3.000
751.130	-4.000
751.386	-1.000
751.641	2.000
751.897	1.000
752.153	-6.000
752.408	-3.000
752.664	-4.000
752.919	-1.000
753.175	-3.000
753.430	-7.000
753.686	-2.000
753.942	5.000
754.197	-5.000
754.453	-8.000
754.708	-6.000
754.964	-3.000
755.219	-2.000
755.475	-5.000
755.730	-2.000
755.986	-2.000
756.241	-2.000
756.497	-2.000
756.752	-7.000
757.008	-1.000
757.263	-1.000
757.519	-2.000
757.774	0.000
758.029	3.000
758.285	-5.000
758.540	-1.000
758.796	-5.000
759.051	-3.000
759.307	-4.000
759.562	-6.000
759.817	-2.000
760.073	-7.000
760.328	-3.000
760.583	-2.000
760.839	1.000
761.094	-4.000
761.349	-3.000
761.605	-2.000
761.860	-5.000
762.115	2.000
762.371	-2.000
762.626	-5.000
762.881	-6.000
763.137	-1.000
763.392	0.000
763.647	-2.000
763.902	-5.000
764.158	-2.000
764.413	2.000
764.668	-3.000
764.923	-4.000
765.179	-5.000
765.434	-3.000
765.689	-8.000
765.944	-4.000
766.199	-3.000
766.455	3.000
766.710	0.000
766.965	0.000
767.220	-3.000
767.475	-3.000
767.730	-3.000
767.985	-1.000
768.241	2.000
768.496	-4.000
768.751	0.000
769.006	-1.000
769.261	-3.000
769.516	-4.000
769.771	-5.000
770.026	-3.000
770.281	-2.000
770.536	-5.000
770.791	-8.000
771.047	-4.000
771.302	-9.000
771.557	-3.000
771.812	-3.000
772.067	-3.000
772.322	-8.000
772.577	-4.000
772.832	1.000
773.087	-4.000
773.342	-2.000
773.597	1.000
773.852	1.000
774.107	-5.000
774.361	-6.000
774.616	-4.000
774.871	-3.000
775.126	-4.000
775.381	-1.000
775.636	2.000
775.891	-1.000
776.146	-2.000
776.401	-1.000
776.656	-7.000
776.911	-10.000
777.165	-6.000
777.420	25.000
777.675	43.000
777.930	31.000
778.185	9.000
778.440	-2.000
778.694	-4.000
778.949	-4.000
779.204	-2.000
779.459	-3.000
779.714	-2.000
779.968	-5.000
780.223	-3.000
780.478	-5.000
780.733	-2.000
780.988	-2.000
781.242	-1.000
781.497	-4.000
781.752	-2.000
782.006	-3.000
782.261	-1.000
782.516	-3.000
782.771	4.000
783.025	-4.000
783.280	0.000
783.535	-4.000
783.789	-7.000
784.044	-6.000
784.299	0.000
784.553	-7.000
784.808	1.000
785.063	-1.000
785.317	-1.000
785.572	1.000
785.826	-1.000
786.081	-2.000
786.336	4.000
786.590	-3.000
786.845	1.000
787.099	1.000
787.354	0.000
787.609	3.000
787.863	1.000
788.118	-1.000
788.372	2.000
788.627	4.000
788.881	1.000
789.136	-1.000
789.390	-3.000
789.645	0.000
789.899	2.000
790.154	-2.000
790.408	0.000
790.663	1.000
790.917	-2.000
791.172	-3.000
791.426	1.000
791.680	-2.000
791.935	-5.000
792.189	-3.000
792.444	-5.000
792.698	-1.000
792.953	-2.000
793.207	0.000
793.461	0.000
793.716	0.000
793.970	5.000
794.224	-1.000
794.479	1.000
794.733	-1.000
794.987	0.000
795.242	5.000
795.496	0.000
795.750	0.000
796.005	-2.000
796.259	0.000
796.513	-5.000
796.768	-4.000
797.022	1.000
797.276	1.000
797.530	-1.000
797.785	-4.000
798.039	5.000
798.293	-3.000
798.547	2.000
798.802	-3.000
799.056	-1.000
799.310	2.000
799.564	3.000
799.819	2.000
800.073	5.000
800.327	2.000
800.581	1.000
800.835	1.000
801.089	0.000
801.344	0.000
801.598	3.000
801.852	3.000
802.106	1.000
802.360	1.000
802.614	-1.000
802.868	-2.000
803.122	0.000
803.377	-2.000
803.631	-5.000
803.885	-2.000
804.139	0.000
804.393	-1.000
804.647	-3.000
804.901	-1.000
805.155	-3.000
805.409	1.000
805.663	-2.000
805.917	-2.000
806.171	-5.000
806.425	-5.000
806.679	1.000
806.933	-2.000
807.187	0.000
807.441	3.000
807.695	-6.000
807.949	-6.000
808.203	1.000
808.457	5.000
808.711	-1.000
808.965	2.000
809.219	1.000
809.473	0.000
809.726	-5.000
809.980	-2.000
810.234	1.000
810.488	-4.000
810.742	-2.000
810.996	2.000
811.250	0.000
811.504	0.000
811.757	-3.000
812.011	-4.000
812.265	0.000
812.519	2.000
812.773	-3.000
813.027	-5.000
813.280	0.000
813.534	-5.000
813.788	-3.000
814.042	-1.000
814.295	-2.000
814.549	-2.000
814.803	-3.000
815.057	-4.000
815.310	2.000
815.564	-4.000
815.818	-4.000
816.072	0.000
816.325	2.000
816.579	-5.000
816.833	1.000
817.086	-5.000
817.340	-1.000
817.594	-3.000
817.848	-3.000
818.101	-3.000
818.355	-4.000
818.608	-2.000
818.862	2.000
819.116	0.000
819.369	-1.000
819.623	-2.000
819.877	-2.000
820.130	-2.000
820.384	-1.000
820.637	-4.000
820.891	-2.000
821.144	-3.000
821.398	-3.000
821.652	-1.000
821.905	2.000
822.159	0.000
822.412	0.000
822.666	0.000
822.919	1.000
823.173	-1.000
823.426	1.000
823.680	-2.000
823.933	-1.000
824.187	-4.000
824.440	-1.000
824.694	-5.000
824.947	-5.000
825.201	-2.000
825.454	1.000
825.707	-1.000
825.961	-2.000
826.214	1.000
826.468	1.000
826.721	2.000
826.975	-1.000
827.228	-1.000
827.481	3.000
827.735	1.000
827.988	-4.000
828.241	-6.000
828.495	0.000
828.748	0.000
829.001	-3.000
829.255	-2.000
829.508	-4.000
829.761	-5.000
830.015	-1.000
830.268	-5.000
830.521	-3.000
830.775	-4.000
831.028	-4.000
831.281	-4.000
831.534	0.000
831.788	0.000
832.041	-1.000
832.294	-4.000
832.547	-1.000
832.801	-2.000
833.054	-1.000
833.307	1.000
833.560	-2.000
833.813	2.000
834.067	2.000
834.320	0.000
834.573	-2.000
834.826	-2.000
835.079	-1.000
835.332	1.000
835.586	1.000
835.839	-7.000
836.092	-5.000
836.345	-5.000
836.598	-3.000
836.851	2.000
837.104	-2.000
837.357	-1.000
837.611	-1.000
837.864	-5.000
838.117	-1.000
838.370	-4.000
838.623	-1.000
838.876	1.000
839.129	-2.000
839.382	-5.000
839.635	-1.000
839.888	1.000
840.141	-3.000
840.394	0.000
840.647	3.000
840.900	-2.000
841.153	1.000
841.406	3.000
841.659	-7.000
841.912	-2.000
842.165	-3.000
842.418	1.000
842.671	0.000
842.924	-3.000
843.176	-1.000
843.429	-1.000
843.682	1.000
843.935	-7.000
844.188	-1.000
844.441	-3.000
844.694	-6.000
844.947	-5.000
845.200	11.000
845.452	6.000
845.705	-1.000
845.958	-5.000
846.211	0.000
846.464	-3.000
846.717	-5.000
846.969	-4.000
847.222	-6.000
847.475	-6.000
847.728	-7.000
847.981	-4.000
848.233	-7.000
848.486	-1.000
848.739	-1.000
848.992	-1.000
849.244	1.000
849.497	-4.000
849.750	-3.000
850.003	2.000
850.255	-1.000
850.508	-4.000
850.761	3.000
851.013	2.000
851.266	-2.000
851.519	-3.000
851.771	-6.000
852.024	1.000
852.277	-5.000
852.529	-3.000
852.782	-6.000
853.035	-1.000
853.287	-2.000
853.540	2.000
853.792	-4.000
854.045	1.000
854.298	-4.000
854.550	-7.000
854.803	-1.000
855.055	-7.000
855.308	0.000
855.560	0.000
855.813	-3.000
856.066	-5.000
856.318	-5.000
856.571	-8.000
856.823	-6.000
857.076	-2.000
857.328	2.000
857.581	-2.000
857.833	-8.000
858.086	2.000
858.338	-4.000
858.591	0.000
858.843	-1.000
859.095	-1.000
859.348	3.000
859.600	-2.000
859.853	-3.000
860.105	-1.000
860.358	-1.000
860.610	1.000
860.862	-2.000
861.115	-2.000
861.367	-5.000
861.620	1.000
861.872	0.000
862.124	1.000
862.377	-7.000
862.629	0.000
862.881	-4.000
863.134	-4.000
863.386	-4.000
863.638	-3.000
863.891	-2.000
864.143	-4.000
864.395	-4.000
864.648	-2.000
864.900	-8.000
865.152	-2.000
865.404	-5.000
865.657	-5.000
865.909	-1.000
866.161	-6.000
866.413	-1.000
866.666	-2.000
866.918	-4.000
867.170	-3.000
867.422	-4.000
867.674	-5.000
867.927	-4.000
868.179	-3.000
868.431	-5.000
868.683	-5.000
868.935	-3.000
869.187	-4.000
869.440	-5.000
869.692	-1.000
869.944	-3.000
870.196	1.000
870.448	-4.000
870.700	0.000
870.952	-5.000
871.204	-6.000
871.457	-4.000
871.709	1.000
871.961	-5.000
872.213	-4.000
872.465	-3.000
872.717	-6.000
872.969	0.000
873.221	-3.000
873.473	-5.000
873.725	-9.000
873.977	-8.000
874.229	-3.000
874.481	-4.000
874.733	-3.000
874.985	-3.000
875.237	-4.000
875.489	-2.000
875.741	0.000
875.993	-2.000
876.245	-3.000
876.497	-6.000
876.749	-5.000
877.001	-1.000
877.253	-2.000
877.504	1.000
877.756	0.000
878.008	-6.000
878.260	-2.000
878.512	0.000
878.764	-5.000
879.016	-2.000
879.268	-6.000
879.519	-4.000
879.771	-2.000
880.023	0.000
880.275	-2.000
880.527	2.000
880.779	-3.000
881.030	-6.000
881.282	-4.000
881.534	-7.000
881.786	-4.000
882.038	-2.000
882.289	-1.000
882.541	-4.000
882.793	-5.000
883.045	-3.000
883.296	-4.000
883.548	-6.000
883.800	-3.000
884.052	-2.000
884.303	-5.000
884.555	-6.000
884.807	-7.000
885.058	-4.000
885.310	1.000
885.562	-3.000
885.813	-6.000
886.065	-2.000
886.317	-1.000
886.568	-1.000
886.820	2.000
887.072	-4.000
887.323	-3.000
887.575	-8.000
887.826	-5.000
888.078	-4.000
888.330	-4.000
888.581	-4.000
888.833	-3.000
889.084	-3.000
889.336	-1.000
889.587	-3.000
889.839	3.000
890.091	-3.000
890.342	-4.000
890.594	0.000
890.845	-5.000
891.097	-2.000
891.348	-3.000
891.600	-4.000
891.851	-4.000
892.103	1.000
892.354	-3.000
892.606	-3.000
892.857	-3.000
893.108	-5.000
893.360	-1.000
893.611	-5.000
893.863	-8.000
894.114	-6.000
894.366	-1.000
894.617	-4.000
894.868	-3.000
895.120	-4.000
895.371	-1.000
895.623	-5.000
895.874	0.000
896.125	-1.000
896.377	-1.000
896.628	-3.000
896.879	-5.000
897.131	-3.000
897.382	1.000
897.633	-4.000
897.885	0.000
898.136	-2.000
898.387	-3.000
898.639	-7.000
898.890	-5.000
899.141	-5.000
899.392	-2.000
899.644	-3.000
899.895	-3.000
900.146	-1.000
900.397	0.000
900.649	-6.000
900.900	-1.000
901.151	3.000
901.402	-5.000
901.653	-3.000
901.905	-7.000
902.156	-4.000
902.407	-5.000
902.658	-5.000
902.909	-2.000
903.160	1.000
903.412	-2.000
903.663	-3.000
903.914	-1.000
904.165	1.000
904.416	2.000
904.667	-2.000
904.918	-2.000
905.169	-1.000
905.421	-1.000
905.672	-3.000
905.923	-1.000
906.174	-2.000
906.425	1.000
906.676	-2.000
906.927	-3.000
907.178	-3.000
907.429	-9.000
907.680	-8.000
907.931	0.000
908.182	-4.000
908.433	1.000
908.684	-1.000
908.935	-2.000
909.186	0.000
909.437	1.000
909.688	0.000
909.939	-2.000
910.190	-3.000
910.441	-4.000
910.692	-2.000
910.943	-2.000
911.194	-2.000
911.445	0.000
911.695	0.000
911.946	-3.000
912.197	-4.000
912.448	-2.000
912.699	-4.000
912.950	1.000
913.201	0.000
913.452	1.000
913.702	3.000
913.953	-4.000
914.204	0.000
914.455	-4.000
914.706	-5.000
914.957	0.000
915.207	-2.000
915.458	-7.000
915.709	-3.000
915.960	-2.000
916.210	-3.000
916.461	2.000
916.712	-1.000
916.963	-5.000
917.213	-2.000
917.464	-2.000
917.715	0.000
917.966	0.000
918.216	-1.000
918.467	-8.000
918.718	-4.000
918.969	-7.000
919.219	-2.000
919.470	-5.000
919.721	-6.000
919.971	-2.000
920.222	1.000
920.473	-4.000
920.723	3.000
920.974	-3.000
921.224	-3.000
921.475	-2.000
921.726	-1.000
921.976	-2.000
922.227	0.000
922.477	1.000
922.728	-1.000
922.979	0.000
923.229	-1.000
923.480	-1.000
923.730	-3.000
923.981	-7.000
924.231	-2.000
924.482	1.000
924.732	-2.000
924.983	-2.000
925.233	-1.000
925.484	-2.000
925.734	-4.000
925.985	-1.000
926.235	-1.000
926.486	-3.000
926.736	-1.000
926.987	-2.000
927.237	-3.000
927.488	-8.000
927.738	-5.000
927.989	-4.000
928.239	-4.000
928.489	-1.000
928.740	-4.000
928.990	-2.000
929.241	-4.000
929.491	-3.000
929.741	-2.000
929.992	-4.000
930.242	-5.000
930.492	-3.000
930.743	-5.000
930.993	-1.000
931.243	-1.000
931.494	-2.000
931.744	-3.000
931.994	-1.000
932.245	-3.000
932.495	2.000
932.745	-9.000
932.996	3.000
933.246	-4.000
933.496	1.000
933.746	0.000
933.997	0.000
934.247	-6.000
934.497	-3.000
934.747	-2.000
934.998	-5.000
935.248	-1.000
935.498	0.000
935.748	-3.000
935.998	3.000
936.249	-5.000
936.499	-5.000
936.749	-2.000
936.999	-6.000
937.249	-2.000
937.499	-4.000
937.750	-5.000
938.000	-3.000
938.250	2.000
938.500	3.000
938.750	2.000
939.000	-1.000
939.250	-1.000
939.500	-1.000
939.750	-6.000
940.000	1.000
940.251	0.000
940.501	-5.000
940.751	2.000
941.001	-1.000
941.251	-5.000
941.501	-3.000
941.751	1.000
942.001	-6.000
942.251	0.000
942.501	-1.000
942.751	4.000
943.001	3.000
943.251	-1.000
943.501	-5.000
943.751	0.000
944.001	-1.000
944.251	-1.000
944.501	-2.000
944.751	-6.000
945.000	0.000
945.250	-3.000
945.500	-1.000
945.750	-2.000
946.000	-2.000
946.250	-2.000
946.500	1.000
946.750	0.000
947.000	-4.000
947.249	0.000
947.499	-2.000
947.749	-4.000
947.999	-4.000
948.249	-2.000
948.499	-1.000
948.749	-1.000
948.998	-2.000
949.248	1.000
949.498	-1.000
949.748	-3.000
949.997	-1.000
950.247	-1.000
950.497	-5.000
950.747	-2.000
950.997	-2.000
951.246	-1.000
951.496	-4.000
951.746	1.000
951.995	0.000
952.245	0.000
952.495	-2.000
952.745	-3.000
952.994	-2.000
953.244	-1.000
953.494	0.000
953.743	-5.000
953.993	-4.000
954.243	-5.000
954.492	-5.000
954.742	-4.000
954.992	-6.000
955.241	-1.000
955.491	2.000
955.740	0.000
955.990	3.000
956.240	-2.000
956.489	-1.000
956.739	3.000
956.988	-1.000
957.238	0.000
957.488	-4.000
957.737	4.000
957.987	-4.000
958.236	-1.000
958.486	1.000
958.735	0.000
958.985	-1.000
959.234	-3.000
959.484	-4.000
959.733	-3.000
959.983	-2.000
960.232	-5.000
960.482	4.000
960.731	1.000
960.981	-3.000
961.230	6.000
961.480	-4.000
961.729	1.000
961.978	0.000
962.228	-3.000
962.477	-1.000
962.727	-5.000
962.976	-3.000
963.226	-3.000
963.475	2.000
963.724	-4.000
963.974	-2.000
964.223	-3.000
964.472	0.000
964.722	-2.000
964.971	1.000
965.220	-2.000
965.470	-1.000
965.719	-3.000
965.968	-6.000
966.218	-6.000
966.467	-2.000
966.716	0.000
966.966	0.000
967.215	-6.000
967.464	0.000
967.713	-1.000
967.963	-2.000
968.212	-3.000
968.461	-1.000
968.710	-1.000
968.960	-2.000
969.209	0.000
969.458	0.000
969.707	-2.000
969.956	-2.000
970.206	-4.000
970.455	-3.000
970.704	-5.000
970.953	-1.000
971.202	-1.000
971.451	-1.000
971.701	-3.000
971.950	2.000
972.199	1.000
972.448	-2.000
972.697	2.000
972.946	0.000
973.195	-5.000
973.444	0.000
973.694	-5.000
973.943	-5.000
974.192	0.000
974.441	-2.000
974.690	-7.000
974.939	-2.000
975.188	-1.000
975.437	0.000
975.686	-1.000
975.935	-5.000
976.184	-5.000
976.433	0.000
976.682	-3.000
976.931	0.000
977.180	-6.000
977.429	-2.000
977.678	-4.000
977.927	0.000
978.176	-3.000
978.425	-8.000
978.674	-3.000
978.923	-4.000
979.172	-4.000
979.421	-2.000
979.670	-3.000
979.918	-3.000
980.167	0.000
980.416	-3.000
980.665	-5.000
980.914	-2.000
981.163	-2.000
981.412	-2.000
981.661	0.000
981.909	1.000
982.158	-2.000
982.407	-4.000
982.656	-3.000
982.905	-3.000
983.154	-2.000
983.402	-1.000
983.651	2.000
983.900	0.000
984.149	0.000
984.398	-3.000
984.646	-7.000
984.895	-4.000
985.144	-6.000
985.393	-1.000
985.641	-1.000
985.890	2.000
986.139	-3.000
986.387	-2.000
986.636	1.000
986.885	2.000
987.134	-2.000
987.382	-4.000
987.631	1.000
987.880	3.000
988.128	2.000
988.377	-1.000
988.626	2.000
988.874	-4.000
989.123	-2.000
989.372	0.000
989.620	-4.000
989.869	1.000
990.117	-1.000
990.366	0.000
990.615	-3.000
990.863	-1.000
991.112	-1.000
991.360	1.000
991.609	-5.000
991.857	-1.000
992.106	-2.000
992.355	0.000
992.603	2.000
992.852	1.000
993.100	-4.000
993.349	-1.000
993.597	-2.000
993.846	-1.000
994.094	-2.000
994.343	-3.000
994.591	0.000
994.840	1.000
995.088	-3.000
995.336	1.000
995.585	-1.000
995.833	-3.000
996.082	-5.000
996.330	-5.000
996.579	0.000
996.827	-4.000
997.075	-2.000
997.324	-3.000
997.572	0.000
997.821	-4.000
998.069	2.000
998.317	-3.000
998.566	-1.000
998.814	-4.000
999.062	-3.000
999.311	-3.000
999.559	-7.000
999.807	2.000
1000.056	-4.000
1000.304	2.000
1000.552	-2.000
1000.801	-8.000
1001.049	-6.000
1001.297	-5.000
1001.546	-2.000
1001.794	-2.000
1002.042	-5.000
1002.290	-2.000
1002.539	-2.000
1002.787	-3.000
1003.035	1.000
1003.283	-4.000
1003.531	0.000
1003.780	-5.000
1004.028	0.000
1004.276	-3.000
1004.524	-6.000
1004.772	-3.000
1005.021	-1.000
1005.269	-3.000
1005.517	-4.000
1005.765	-5.000
1006.013	-5.000
1006.261	-3.000
1006.509	0.000
1006.758	-1.000
1007.006	-4.000
1007.254	-6.000
1007.502	-2.000
1007.750	-3.000
1007.998	-3.000
1008.246	0.000
1008.494	-9.000
1008.742	-3.000
1008.990	-4.000
1009.238	-6.000
1009.486	1.000
1009.735	-4.000
1009.983	1.000
1010.231	4.000
1010.479	1.000
1010.727	2.000
1010.975	1.000
1011.223	3.000
1011.471	2.000
1011.719	-4.000
1011.967	-8.000
1012.214	-4.000
1012.462	-4.000
1012.710	-3.000
1012.958	-5.000
1013.206	-4.000
1013.454	1.000
1013.702	-3.000
1013.950	-5.000
1014.198	-1.000
1014.446	3.000
1014.694	-4.000
1014.942	-1.000
1015.189	-1.000
1015.437	0.000
1015.685	-1.000
1015.933	-2.000
1016.181	-2.000
1016.429	-3.000
1016.677	-1.000
1016.924	-5.000
1017.172	-6.000
1017.420	-5.000
1017.668	-5.000
1017.916	-2.000
1018.163	-5.000
1018.411	-3.000
1018.659	-5.000
1018.907	-5.000
1019.155	-3.000
1019.402	-5.000
1019.650	-5.000
1019.898	-3.000
1020.145	-6.000
1020.393	-2.000
1020.641	-5.000
1020.889	1.000
1021.136	-2.000
1021.384	-2.000
1021.632	2.000
1021.879	-3.000
1022.127	-3.000
1022.375	-3.000
1022.622	-3.000
1022.870	-6.000
1023.118	-3.000
1023.365	0.000
1023.613	-7.000
1023.861	-4.000
1024.108	-4.000
1024.356	0.000
1024.603	-4.000
1024.851	0.000
1025.099	-3.000
1025.346	-1.000
1025.594	1.000
1025.841	1.000
1026.089	-4.000
1026.336	-5.000
1026.584	-1.000
1026.832	-2.000
1027.079	3.000
1027.327	-2.000
1027.574	-1.000
1027.822	-6.000
1028.069	-2.000
1028.317	-4.000
1028.564	-4.000
1028.812	-5.000
1029.059	-6.000
1029.306	-3.000
1029.554	0.000
1029.801	0.000
1030.049	1.000
1030.296	0.000
1030.544	-2.000
1030.791	-2.000
1031.039	0.000
1031.286	-1.000
1031.533	-2.000
1031.781	-2.000
1032.028	1.000
1032.276	-3.000
1032.523	0.000
1032.770	-4.000
1033.018	-3.000
1033.265	-1.000
1033.512	1.000
1033.760	-3.000
1034.007	-3.000
1034.254	-1.000
1034.502	-1.000
1034.749	0.000
1034.996	2.000
1035.243	-2.000
1035.491	0.000
1035.738	2.000
1035.985	-7.000
1036.233	-5.000
1036.480	0.000
1036.727	-5.000
1036.974	-7.000
1037.222	0.000
1037.469	-2.000
1037.716	0.000
1037.963	1.000
1038.210	-6.000
1038.458	-5.000
1038.705	-1.000
1038.952	-2.000
1039.199	-5.000
1039.446	-4.000
1039.693	-1.000
1039.941	-4.000
1040.188	-2.000
1040.435	0.000
1040.682	1.000
1040.929	-1.000
1041.176	-1.000
1041.423	-3.000
1041.671	3.000
1041.918	-3.000
1042.165	-3.000
1042.412	-3.000
1042.659	1.000
1042.906	0.000
1043.153	-2.000
1043.400	-2.000
1043.647	-3.000
1043.894	-4.000
1044.141	0.000
1044.388	-5.000
1044.635	-4.000
1044.882	-1.000
1045.129	0.000
1045.376	-3.000
1045.623	-4.000
1045.870	-2.000
1046.117	-2.000
1046.364	-1.000
1046.611	-2.000
1046.858	-1.000
1047.105	-5.000
1047.352	-2.000
1047.599	-2.000
1047.846	0.000
1048.093	-3.000
1048.340	-3.000
1048.587	-3.000
1048.833	-1.000
1049.080	-4.000
1049.327	-4.000
1049.574	-3.000
1049.821	2.000
1050.068	-1.000
1050.315	-4.000
1050.561	-1.000
1050.808	1.000
1051.055	-4.000
1051.302	-1.000
1051.549	-2.000
1051.796	-5.000
1052.042	-3.000
1052.289	-2.000
1052.536	-1.000
1052.783	-4.000
1053.030	0.000
1053.276	-4.000
1053.523	-1.000
1053.770	0.000
1054.017	3.000
1054.263	3.000
1054.510	2.000
1054.757	-5.000
1055.003	2.000
1055.250	-4.000
1055.497	-3.000
1055.744	-2.000
1055.990	-5.000
1056.237	-4.000
1056.484	1.000
1056.730	4.000
1056.977	1.000
1057.224	0.000
1057.470	-1.000
1057.717	2.000
1057.963	1.000
1058.210	-5.000
1058.457	-5.000
1058.703	-5.000
1058.950	1.000
1059.197	-2.000
1059.443	-2.000
1059.690	-1.000
1059.936	1.000
1060.183	-3.000
1060.429	-5.000
1060.676	-2.000
1060.922	2.000
1061.169	0.000
1061.416	0.000
1061.662	0.000
1061.909	2.000
1062.155	-2.000
1062.402	-1.000
1062.648	-3.000
1062.895	-3.000
1063.141	0.000
1063.387	-3.000
1063.634	-2.000
1063.880	-1.000
1064.127	-1.000
1064.373	-2.000
1064.620	-1.000
1064.866	-3.000
1065.113	1.000
1065.359	-4.000
1065.605	0.000
1065.852	2.000
1066.098	3.000
1066.345	-5.000
1066.591	-3.000
1066.837	2.000
1067.084	0.000
1067.330	2.000
1067.576	-3.000
1067.823	2.000
1068.069	-4.000
1068.315	-7.000
1068.562	-3.000
1068.808	-1.000
1069.054	-2.000
1069.301	-1.000
1069.547	-2.000
1069.793	-5.000
1070.040	-3.000
1070.286	2.000
1070.532	0.000
1070.778	-4.000
1071.025	0.000
1071.271	0.000
1071.517	-6.000
1071.763	2.000
1072.009	-2.000
1072.256	-1.000
1072.502	0.000
1072.748	-3.000
1072.994	2.000
1073.240	-2.000
1073.487	-2.000
1073.733	-1.000
1073.979	-2.000
1074.225	-1.000
1074.471	-4.000
1074.717	-1.000
1074.964	-3.000
1075.210	2.000
1075.456	-2.000
1075.702	-4.000
1075.948	-9.000
1076.194	-5.000
1076.440	-2.000
1076.686	2.000
1076.932	-2.000
1077.178	3.000
1077.425	-1.000
1077.671	-2.000
1077.917	-1.000
1078.163	2.000
1078.409	-4.000
1078.655	2.000
1078.901	-4.000
1079.147	-5.000
1079.393	-3.000
1079.639	-4.000
1079.885	1.000
1080.131	4.000
1080.377	-2.000
1080.623	0.000
1080.869	-2.000
1081.115	-3.000
1081.361	-1.000
1081.606	-1.000
1081.852	1.000
1082.098	0.000
1082.344	-2.000
1082.590	-3.000
1082.836	1.000
1083.082	-2.000
1083.328	2.000
1083.574	0.000
1083.820	1.000
1084.065	-7.000
1084.311	-6.000
1084.557	-1.000
1084.803	-2.000
1085.049	0.000
1085.295	-2.000
1085.541	-3.000
1085.786	-4.000
1086.032	-2.000
1086.278	0.000
1086.524	5.000
1086.770	0.000
1087.015	-2.000
1087.261	1.000
1087.507	-4.000
1087.753	-1.000
1087.998	-3.000
1088.244	-7.000
1088.490	-1.000
1088.736	-1.000
1088.981	0.000
1089.227	1.000
1089.473	-1.000
1089.719	-6.000
1089.964	-2.000
1090.210	0.000
1090.456	0.000
1090.701	-1.000
1090.947	-1.000
1091.193	-7.000
1091.438	-1.000
1091.684	1.000
1091.930	-5.000
1092.175	4.000
1092.421	-5.000
1092.666	-3.000
1092.912	1.000
1093.158	-3.000
1093.403	-3.000
1093.649	1.000
1093.894	1.000
1094.140	-3.000
1094.386	0.000
1094.631	-2.000
1094.877	-10.000
1095.122	-3.000
1095.368	-1.000
1095.613	-6.000
1095.859	-3.000
1096.104	-1.000
1096.350	-3.000
1096.595	1.000
1096.841	-5.000
1097.086	2.000
1097.332	-1.000
1097.577	-2.000
1097.823	-5.000
1098.068	-1.000
1098.314	-3.000
1098.559	-1.000
1098.805	-3.000
1099.050	-2.000
1099.295	-1.000
1099.541	-3.000
1099.786	-5.000
+++++End Spectral Data+++++
