Spectrometer Data
EN
------------------------------
Saving Time:Wed, Jan 21, 2026 14:02:40
Device Name:Aurora 4000
Version Info:V9_84
Serial Number:220120190816098402001100
Integral Time(æs):5000
Avg Count:1
Smoothness:0
Data Type:(0 1)Wavelength-Delete Dark
X-Axis Unit:nm
Y-Axis Unit:counts
Pixel Count:3482
Reserve0:250
Other Description:
+++++Begin Spectral Data+++++
200.149	-5.000
200.421	-3.000
200.693	-5.000
200.966	-2.000
201.238	-2.000
201.510	-2.000
201.782	-1.000
202.054	-6.000
202.326	-4.000
202.598	-2.000
202.870	1.000
203.142	1.000
203.414	-4.000
203.686	-5.000
203.958	-4.000
204.230	-3.000
204.502	1.000
204.774	2.000
205.046	0.000
205.318	-3.000
205.590	0.000
205.861	4.000
206.133	-2.000
206.405	0.000
206.677	-1.000
206.949	0.000
207.221	0.000
207.493	-1.000
207.765	0.000
208.037	-2.000
208.308	3.000
208.580	1.000
208.852	1.000
209.124	-3.000
209.396	-3.000
209.668	-3.000
209.939	-2.000
210.211	1.000
210.483	-2.000
210.755	-3.000
211.027	-1.000
211.298	-5.000
211.570	1.000
211.842	3.000
212.114	0.000
212.385	0.000
212.657	1.000
212.929	-4.000
213.200	4.000
213.472	0.000
213.744	-2.000
214.016	-1.000
214.287	-2.000
214.559	3.000
214.831	1.000
215.102	1.000
215.374	2.000
215.645	0.000
215.917	4.000
216.189	3.000
216.460	1.000
216.732	-4.000
217.004	-3.000
217.275	-4.000
217.547	-2.000
217.818	0.000
218.090	-1.000
218.361	-1.000
218.633	3.000
218.904	-1.000
219.176	4.000
219.448	1.000
219.719	2.000
219.991	-4.000
220.262	-1.000
220.534	3.000
220.805	2.000
221.076	3.000
221.348	1.000
221.619	3.000
221.891	-1.000
222.162	-2.000
222.434	-1.000
222.705	2.000
222.977	-1.000
223.248	-6.000
223.519	-1.000
223.791	-1.000
224.062	-4.000
224.333	-1.000
224.605	0.000
224.876	0.000
225.148	-2.000
225.419	3.000
225.690	-1.000
225.962	2.000
226.233	-2.000
226.504	0.000
226.775	3.000
227.047	-3.000
227.318	-2.000
227.589	1.000
227.861	3.000
228.132	3.000
228.403	2.000
228.674	-5.000
228.946	1.000
229.217	0.000
229.488	1.000
229.759	2.000
230.030	0.000
230.302	-2.000
230.573	3.000
230.844	3.000
231.115	1.000
231.386	5.000
231.657	-1.000
231.929	-2.000
232.200	0.000
232.471	0.000
232.742	2.000
233.013	-6.000
233.284	-5.000
233.555	-3.000
233.826	2.000
234.097	-1.000
234.369	3.000
234.640	1.000
234.911	4.000
235.182	2.000
235.453	0.000
235.724	1.000
235.995	-1.000
236.266	1.000
236.537	-1.000
236.808	-2.000
237.079	-4.000
237.350	0.000
237.621	2.000
237.892	2.000
238.163	-2.000
238.434	2.000
238.705	3.000
238.975	-1.000
239.246	-2.000
239.517	-1.000
239.788	2.000
240.059	4.000
240.330	-3.000
240.601	0.000
240.872	-1.000
241.143	0.000
241.413	1.000
241.684	5.000
241.955	-4.000
242.226	-1.000
242.497	1.000
242.768	-1.000
243.038	-3.000
243.309	2.000
243.580	5.000
243.851	2.000
244.122	-1.000
244.392	-3.000
244.663	-3.000
244.934	-4.000
245.205	-1.000
245.475	-2.000
245.746	5.000
246.017	-3.000
246.288	-3.000
246.558	1.000
246.829	-1.000
247.100	-3.000
247.370	-4.000
247.641	3.000
247.912	-2.000
248.182	2.000
248.453	1.000
248.724	0.000
248.994	-6.000
249.265	-8.000
249.535	-2.000
249.806	-5.000
250.077	-4.000
250.347	0.000
250.618	5.000
250.888	0.000
251.159	0.000
251.430	1.000
251.700	0.000
251.971	0.000
252.241	1.000
252.512	0.000
252.782	-2.000
253.053	-3.000
253.323	-4.000
253.594	-1.000
253.864	-4.000
254.135	1.000
254.405	-2.000
254.676	0.000
254.946	-2.000
255.216	2.000
255.487	0.000
255.757	-4.000
256.028	-3.000
256.298	-3.000
256.569	-2.000
256.839	-1.000
257.109	-1.000
257.380	-1.000
257.650	-3.000
257.920	-3.000
258.191	0.000
258.461	-1.000
258.731	1.000
259.002	-3.000
259.272	-1.000
259.542	-1.000
259.813	-6.000
260.083	-2.000
260.353	2.000
260.624	-7.000
260.894	3.000
261.164	3.000
261.434	1.000
261.705	1.000
261.975	-3.000
262.245	-1.000
262.515	-1.000
262.786	1.000
263.056	-1.000
263.326	2.000
263.596	1.000
263.866	-3.000
264.137	-3.000
264.407	0.000
264.677	-2.000
264.947	-1.000
265.217	0.000
265.487	5.000
265.757	-1.000
266.027	0.000
266.298	0.000
266.568	-2.000
266.838	-1.000
267.108	3.000
267.378	-2.000
267.648	0.000
267.918	0.000
268.188	-1.000
268.458	2.000
268.728	-2.000
268.998	-2.000
269.268	-5.000
269.538	-5.000
269.808	-2.000
270.078	2.000
270.348	-1.000
270.618	0.000
270.888	0.000
271.158	-4.000
271.428	-1.000
271.698	-2.000
271.968	-2.000
272.238	-6.000
272.508	-5.000
272.778	-3.000
273.048	-3.000
273.318	0.000
273.587	-4.000
273.857	1.000
274.127	2.000
274.397	0.000
274.667	-1.000
274.937	-5.000
275.207	0.000
275.476	-2.000
275.746	-3.000
276.016	-1.000
276.286	-1.000
276.556	-2.000
276.826	1.000
277.095	1.000
277.365	-3.000
277.635	-3.000
277.905	-3.000
278.174	-3.000
278.444	-1.000
278.714	-4.000
278.984	-7.000
279.253	-3.000
279.523	5.000
279.793	0.000
280.062	-1.000
280.332	-1.000
280.602	-2.000
280.871	-4.000
281.141	-2.000
281.411	2.000
281.680	-2.000
281.950	2.000
282.220	-10.000
282.489	-10.000
282.759	-3.000
283.029	-6.000
283.298	-4.000
283.568	-2.000
283.837	-1.000
284.107	1.000
284.376	-2.000
284.646	-2.000
284.916	3.000
285.185	-2.000
285.455	-2.000
285.724	-5.000
285.994	-5.000
286.263	-3.000
286.533	1.000
286.802	-1.000
287.072	-5.000
287.341	-5.000
287.611	-2.000
287.880	-3.000
288.149	-2.000
288.419	-3.000
288.688	-6.000
288.958	1.000
289.227	-3.000
289.497	-2.000
289.766	-1.000
290.035	1.000
290.305	3.000
290.574	-3.000
290.844	-2.000
291.113	-3.000
291.382	-3.000
291.652	-3.000
291.921	-4.000
292.190	0.000
292.460	-3.000
292.729	-2.000
292.998	-4.000
293.268	2.000
293.537	-4.000
293.806	-3.000
294.075	-4.000
294.345	2.000
294.614	-3.000
294.883	-4.000
295.152	-5.000
295.422	-4.000
295.691	-6.000
295.960	-1.000
296.229	-9.000
296.498	-4.000
296.768	-1.000
297.037	0.000
297.306	-4.000
297.575	-5.000
297.844	-1.000
298.114	-1.000
298.383	-4.000
298.652	-3.000
298.921	-2.000
299.190	-3.000
299.459	-7.000
299.728	-1.000
299.997	-2.000
300.266	3.000
300.536	0.000
300.805	-3.000
301.074	-3.000
301.343	-1.000
301.612	0.000
301.881	-1.000
302.150	-3.000
302.419	-1.000
302.688	-3.000
302.957	-3.000
303.226	-4.000
303.495	-3.000
303.764	-2.000
304.033	-2.000
304.302	-8.000
304.571	-9.000
304.840	-4.000
305.109	-1.000
305.378	0.000
305.646	-1.000
305.915	-2.000
306.184	-4.000
306.453	-3.000
306.722	1.000
306.991	-2.000
307.260	-3.000
307.529	-2.000
307.798	-5.000
308.066	-1.000
308.335	-2.000
308.604	-2.000
308.873	2.000
309.142	0.000
309.411	-4.000
309.679	1.000
309.948	2.000
310.217	0.000
310.486	-5.000
310.755	-6.000
311.023	-3.000
311.292	-4.000
311.561	-1.000
311.830	-5.000
312.098	-5.000
312.367	-3.000
312.636	-7.000
312.904	-3.000
313.173	0.000
313.442	-2.000
313.711	-5.000
313.979	-5.000
314.248	-8.000
314.517	-4.000
314.785	-5.000
315.054	-6.000
315.322	-4.000
315.591	-2.000
315.860	-7.000
316.128	-3.000
316.397	-5.000
316.665	-8.000
316.934	3.000
317.203	-4.000
317.471	-1.000
317.740	-2.000
318.008	-4.000
318.277	-3.000
318.545	-2.000
318.814	-4.000
319.082	-5.000
319.351	-4.000
319.619	-2.000
319.888	-3.000
320.156	0.000
320.425	-1.000
320.693	-4.000
320.962	-3.000
321.230	-4.000
321.499	-7.000
321.767	-3.000
322.036	-5.000
322.304	-3.000
322.573	-3.000
322.841	-1.000
323.109	-7.000
323.378	-5.000
323.646	-4.000
323.914	-2.000
324.183	-4.000
324.451	-5.000
324.720	-8.000
324.988	-7.000
325.256	-6.000
325.525	-5.000
325.793	-4.000
326.061	1.000
326.330	0.000
326.598	-6.000
326.866	-3.000
327.134	0.000
327.403	-2.000
327.671	2.000
327.939	-2.000
328.207	-6.000
328.476	1.000
328.744	-4.000
329.012	0.000
329.280	-3.000
329.549	-1.000
329.817	-3.000
330.085	2.000
330.353	1.000
330.621	-1.000
330.889	-2.000
331.158	0.000
331.426	-7.000
331.694	-7.000
331.962	-5.000
332.230	-1.000
332.498	-4.000
332.766	-2.000
333.035	-5.000
333.303	-2.000
333.571	-2.000
333.839	-8.000
334.107	-6.000
334.375	0.000
334.643	-5.000
334.911	-2.000
335.179	-2.000
335.447	-2.000
335.715	-8.000
335.983	-4.000
336.251	-4.000
336.519	-5.000
336.787	2.000
337.055	-1.000
337.323	-6.000
337.591	3.000
337.859	2.000
338.127	-5.000
338.395	-2.000
338.663	-4.000
338.931	-4.000
339.199	-2.000
339.467	-8.000
339.734	1.000
340.002	-2.000
340.270	-2.000
340.538	-2.000
340.806	-6.000
341.074	-2.000
341.342	-6.000
341.610	0.000
341.877	-1.000
342.145	-5.000
342.413	-3.000
342.681	-3.000
342.949	-2.000
343.216	-5.000
343.484	-3.000
343.752	-2.000
344.020	-3.000
344.288	-4.000
344.555	-3.000
344.823	-4.000
345.091	1.000
345.359	-3.000
345.626	-2.000
345.894	-3.000
346.162	-2.000
346.429	-4.000
346.697	-3.000
346.965	-1.000
347.232	-8.000
347.500	-6.000
347.768	-3.000
348.035	-2.000
348.303	-3.000
348.571	-1.000
348.838	-1.000
349.106	-4.000
349.374	-4.000
349.641	-5.000
349.909	-2.000
350.176	-4.000
350.444	4.000
350.712	0.000
350.979	-2.000
351.247	-2.000
351.514	2.000
351.782	-3.000
352.049	-2.000
352.317	0.000
352.584	0.000
352.852	-4.000
353.119	-3.000
353.387	-3.000
353.654	-8.000
353.922	-7.000
354.189	0.000
354.457	-3.000
354.724	-1.000
354.992	-3.000
355.259	-6.000
355.526	-2.000
355.794	-5.000
356.061	-3.000
356.329	-5.000
356.596	-7.000
356.863	-5.000
357.131	-1.000
357.398	-4.000
357.666	-3.000
357.933	-4.000
358.200	-4.000
358.468	-6.000
358.735	2.000
359.002	-3.000
359.270	-2.000
359.537	-3.000
359.804	-1.000
360.071	2.000
360.339	-5.000
360.606	-3.000
360.873	-2.000
361.141	-2.000
361.408	-6.000
361.675	-4.000
361.942	-4.000
362.210	1.000
362.477	-4.000
362.744	-2.000
363.011	-2.000
363.278	-3.000
363.546	-2.000
363.813	1.000
364.080	-3.000
364.347	-2.000
364.614	-1.000
364.881	0.000
365.148	0.000
365.416	-2.000
365.683	-1.000
365.950	0.000
366.217	-3.000
366.484	-3.000
366.751	-4.000
367.018	1.000
367.285	0.000
367.552	0.000
367.819	1.000
368.086	-4.000
368.354	0.000
368.621	0.000
368.888	-2.000
369.155	-3.000
369.422	2.000
369.689	1.000
369.956	-2.000
370.223	-3.000
370.490	-1.000
370.757	-5.000
371.024	-1.000
371.290	1.000
371.557	-1.000
371.824	-1.000
372.091	4.000
372.358	3.000
372.625	2.000
372.892	-5.000
373.159	-6.000
373.426	-6.000
373.693	-2.000
373.960	-3.000
374.226	-1.000
374.493	0.000
374.760	-2.000
375.027	-3.000
375.294	0.000
375.561	-1.000
375.827	-1.000
376.094	-1.000
376.361	-5.000
376.628	-3.000
376.895	-5.000
377.161	1.000
377.428	-3.000
377.695	1.000
377.962	0.000
378.228	1.000
378.495	-2.000
378.762	-1.000
379.029	-4.000
379.295	4.000
379.562	0.000
379.829	-1.000
380.095	-3.000
380.362	0.000
380.629	-2.000
380.896	-1.000
381.162	1.000
381.429	-4.000
381.695	2.000
381.962	-2.000
382.229	-5.000
382.495	-4.000
382.762	2.000
383.029	-2.000
383.295	-5.000
383.562	-6.000
383.828	-2.000
384.095	-1.000
384.361	-2.000
384.628	-3.000
384.895	0.000
385.161	0.000
385.428	1.000
385.694	0.000
385.961	-1.000
386.227	-1.000
386.494	2.000
386.760	2.000
387.027	-2.000
387.293	2.000
387.560	-1.000
387.826	1.000
388.092	2.000
388.359	1.000
388.625	0.000
388.892	1.000
389.158	1.000
389.425	6.000
389.691	0.000
389.957	-4.000
390.224	-2.000
390.490	0.000
390.757	-1.000
391.023	-4.000
391.289	-3.000
391.556	0.000
391.822	0.000
392.088	4.000
392.355	3.000
392.621	-1.000
392.887	3.000
393.154	-1.000
393.420	-1.000
393.686	-5.000
393.952	-3.000
394.219	-5.000
394.485	0.000
394.751	-2.000
395.017	0.000
395.284	4.000
395.550	3.000
395.816	-3.000
396.082	-2.000
396.349	2.000
396.615	-1.000
396.881	-5.000
397.147	-4.000
397.413	-2.000
397.679	-5.000
397.946	-9.000
398.212	-2.000
398.478	-7.000
398.744	-4.000
399.010	-5.000
399.276	-1.000
399.542	-1.000
399.808	-1.000
400.075	1.000
400.341	-1.000
400.607	0.000
400.873	0.000
401.139	-1.000
401.405	-2.000
401.671	-1.000
401.937	1.000
402.203	2.000
402.469	4.000
402.735	3.000
403.001	3.000
403.267	-1.000
403.533	-2.000
403.799	0.000
404.065	0.000
404.331	4.000
404.597	-1.000
404.863	0.000
405.129	-2.000
405.395	0.000
405.661	-4.000
405.927	-1.000
406.192	-3.000
406.458	0.000
406.724	-1.000
406.990	-1.000
407.256	-3.000
407.522	-1.000
407.788	2.000
408.054	1.000
408.319	1.000
408.585	0.000
408.851	2.000
409.117	0.000
409.383	-1.000
409.649	2.000
409.914	2.000
410.180	2.000
410.446	-1.000
410.712	-1.000
410.977	0.000
411.243	2.000
411.509	0.000
411.775	-1.000
412.040	1.000
412.306	1.000
412.572	-1.000
412.838	-4.000
413.103	-4.000
413.369	0.000
413.635	-3.000
413.900	-6.000
414.166	-1.000
414.432	0.000
414.697	1.000
414.963	-2.000
415.229	1.000
415.494	3.000
415.760	1.000
416.025	1.000
416.291	3.000
416.557	-1.000
416.822	-4.000
417.088	2.000
417.353	3.000
417.619	-1.000
417.884	-1.000
418.150	0.000
418.416	-2.000
418.681	1.000
418.947	-4.000
419.212	-1.000
419.478	-1.000
419.743	0.000
420.009	-3.000
420.274	-1.000
420.540	-2.000
420.805	-4.000
421.071	-3.000
421.336	0.000
421.601	-3.000
421.867	-3.000
422.132	-1.000
422.398	-1.000
422.663	-6.000
422.929	-4.000
423.194	0.000
423.459	-2.000
423.725	-6.000
423.990	-4.000
424.256	-5.000
424.521	-2.000
424.786	-4.000
425.052	3.000
425.317	-1.000
425.582	0.000
425.848	0.000
426.113	-5.000
426.378	-3.000
426.643	3.000
426.909	-2.000
427.174	2.000
427.439	1.000
427.705	-3.000
427.970	-3.000
428.235	-4.000
428.500	0.000
428.766	-1.000
429.031	-2.000
429.296	-5.000
429.561	-2.000
429.826	0.000
430.092	-2.000
430.357	-3.000
430.622	-1.000
430.887	-2.000
431.152	-3.000
431.417	-4.000
431.683	-4.000
431.948	-7.000
432.213	-3.000
432.478	2.000
432.743	-1.000
433.008	2.000
433.273	0.000
433.538	0.000
433.803	-2.000
434.069	-2.000
434.334	-3.000
434.599	-5.000
434.864	-4.000
435.129	0.000
435.394	-5.000
435.659	-1.000
435.924	-3.000
436.189	-1.000
436.454	-1.000
436.719	-3.000
436.984	-2.000
437.249	3.000
437.514	3.000
437.779	-1.000
438.044	-3.000
438.309	-7.000
438.574	0.000
438.838	-2.000
439.103	-1.000
439.368	-3.000
439.633	2.000
439.898	-3.000
440.163	-1.000
440.428	-4.000
440.693	-1.000
440.958	-4.000
441.222	-6.000
441.487	-1.000
441.752	-2.000
442.017	-7.000
442.282	-3.000
442.547	-3.000
442.811	-3.000
443.076	-3.000
443.341	0.000
443.606	-8.000
443.871	-4.000
444.135	-6.000
444.400	-6.000
444.665	-6.000
444.930	-6.000
445.194	-3.000
445.459	-5.000
445.724	-3.000
445.989	-1.000
446.253	-3.000
446.518	-3.000
446.783	2.000
447.047	0.000
447.312	-1.000
447.577	-1.000
447.841	4.000
448.106	-1.000
448.371	-2.000
448.635	1.000
448.900	-4.000
449.165	-1.000
449.429	1.000
449.694	-2.000
449.958	-7.000
450.223	-4.000
450.488	-5.000
450.752	-2.000
451.017	-3.000
451.281	3.000
451.546	0.000
451.810	0.000
452.075	-1.000
452.339	-2.000
452.604	3.000
452.868	2.000
453.133	-1.000
453.397	-7.000
453.662	-6.000
453.926	-3.000
454.191	-2.000
454.455	-3.000
454.720	-1.000
454.984	-5.000
455.249	-2.000
455.513	2.000
455.778	-3.000
456.042	2.000
456.306	-4.000
456.571	0.000
456.835	0.000
457.100	-2.000
457.364	-4.000
457.628	-6.000
457.893	0.000
458.157	-3.000
458.421	1.000
458.686	-5.000
458.950	-2.000
459.214	-2.000
459.479	0.000
459.743	-4.000
460.007	-7.000
460.272	-7.000
460.536	-3.000
460.800	0.000
461.064	-3.000
461.329	1.000
461.593	0.000
461.857	-4.000
462.121	-4.000
462.386	-5.000
462.650	0.000
462.914	-7.000
463.178	-7.000
463.442	0.000
463.707	-5.000
463.971	-6.000
464.235	-1.000
464.499	0.000
464.763	-3.000
465.027	-2.000
465.292	1.000
465.556	-4.000
465.820	-4.000
466.084	-2.000
466.348	-1.000
466.612	1.000
466.876	-5.000
467.140	-1.000
467.404	4.000
467.668	-8.000
467.933	-1.000
468.197	1.000
468.461	2.000
468.725	-3.000
468.989	-2.000
469.253	0.000
469.517	0.000
469.781	0.000
470.045	0.000
470.309	-5.000
470.573	-2.000
470.837	1.000
471.101	0.000
471.365	0.000
471.629	-3.000
471.892	-1.000
472.156	2.000
472.420	-3.000
472.684	-5.000
472.948	-4.000
473.212	-5.000
473.476	-3.000
473.740	-7.000
474.004	-4.000
474.268	-3.000
474.531	0.000
474.795	-2.000
475.059	-4.000
475.323	-1.000
475.587	-3.000
475.851	1.000
476.114	0.000
476.378	-4.000
476.642	-7.000
476.906	-6.000
477.170	-1.000
477.433	-2.000
477.697	-3.000
477.961	-3.000
478.225	1.000
478.488	-5.000
478.752	1.000
479.016	-7.000
479.280	-3.000
479.543	-7.000
479.807	-8.000
480.071	0.000
480.334	-3.000
480.598	-4.000
480.862	-3.000
481.125	-2.000
481.389	-3.000
481.653	1.000
481.916	2.000
482.180	2.000
482.444	1.000
482.707	-5.000
482.971	-3.000
483.234	-6.000
483.498	-4.000
483.762	-4.000
484.025	-3.000
484.289	-3.000
484.552	-1.000
484.816	-5.000
485.079	-2.000
485.343	-6.000
485.607	-1.000
485.870	-7.000
486.134	5.000
486.397	3.000
486.661	-3.000
486.924	-4.000
487.188	-5.000
487.451	-4.000
487.715	-1.000
487.978	-3.000
488.241	-2.000
488.505	-5.000
488.768	-5.000
489.032	-2.000
489.295	-3.000
489.559	2.000
489.822	-1.000
490.085	2.000
490.349	0.000
490.612	-3.000
490.876	-6.000
491.139	-1.000
491.402	-2.000
491.666	-5.000
491.929	-3.000
492.192	-1.000
492.456	5.000
492.719	0.000
492.982	1.000
493.246	-1.000
493.509	-5.000
493.772	0.000
494.035	-4.000
494.299	-2.000
494.562	-1.000
494.825	1.000
495.088	-4.000
495.352	1.000
495.615	-1.000
495.878	-3.000
496.141	-2.000
496.405	-5.000
496.668	-3.000
496.931	-6.000
497.194	-4.000
497.457	0.000
497.721	-2.000
497.984	-3.000
498.247	3.000
498.510	0.000
498.773	-5.000
499.036	-5.000
499.299	-5.000
499.562	-4.000
499.826	-2.000
500.089	-2.000
500.352	-2.000
500.615	-3.000
500.878	1.000
501.141	1.000
501.404	-4.000
501.667	1.000
501.930	2.000
502.193	-5.000
502.456	-2.000
502.719	-8.000
502.982	-3.000
503.245	-4.000
503.508	-3.000
503.771	4.000
504.034	0.000
504.297	1.000
504.560	-4.000
504.823	-2.000
505.086	-2.000
505.349	2.000
505.612	-4.000
505.875	-5.000
506.138	1.000
506.401	-4.000
506.664	-3.000
506.927	1.000
507.189	-2.000
507.452	-1.000
507.715	0.000
507.978	2.000
508.241	4.000
508.504	-3.000
508.767	1.000
509.029	1.000
509.292	1.000
509.555	-4.000
509.818	1.000
510.081	2.000
510.343	-4.000
510.606	-4.000
510.869	-2.000
511.132	2.000
511.395	-2.000
511.657	-2.000
511.920	-1.000
512.183	1.000
512.446	-3.000
512.708	-1.000
512.971	2.000
513.234	0.000
513.496	-1.000
513.759	-2.000
514.022	-1.000
514.284	1.000
514.547	-4.000
514.810	-1.000
515.072	2.000
515.335	-3.000
515.598	0.000
515.860	-4.000
516.123	2.000
516.386	0.000
516.648	-1.000
516.911	-5.000
517.173	-2.000
517.436	0.000
517.698	0.000
517.961	-3.000
518.224	2.000
518.486	-5.000
518.749	-6.000
519.011	-1.000
519.274	-3.000
519.536	-1.000
519.799	-3.000
520.061	-1.000
520.324	0.000
520.586	0.000
520.849	-3.000
521.111	-3.000
521.374	-5.000
521.636	-7.000
521.899	-1.000
522.161	-2.000
522.423	-4.000
522.686	-1.000
522.948	-3.000
523.211	1.000
523.473	2.000
523.736	-3.000
523.998	3.000
524.260	-4.000
524.523	-3.000
524.785	-1.000
525.047	0.000
525.310	-2.000
525.572	-2.000
525.834	-1.000
526.097	-5.000
526.359	-2.000
526.621	-1.000
526.884	-1.000
527.146	-1.000
527.408	-3.000
527.670	2.000
527.933	1.000
528.195	2.000
528.457	-3.000
528.719	-2.000
528.982	-5.000
529.244	-2.000
529.506	3.000
529.768	0.000
530.031	-3.000
530.293	2.000
530.555	-2.000
530.817	-2.000
531.079	-3.000
531.342	0.000
531.604	-1.000
531.866	-1.000
532.128	-6.000
532.390	0.000
532.652	-2.000
532.914	-1.000
533.176	-4.000
533.439	-1.000
533.701	-2.000
533.963	1.000
534.225	-2.000
534.487	-1.000
534.749	2.000
535.011	1.000
535.273	-1.000
535.535	1.000
535.797	0.000
536.059	4.000
536.321	2.000
536.583	-1.000
536.845	-5.000
537.107	-1.000
537.369	-4.000
537.631	0.000
537.893	-1.000
538.155	3.000
538.417	1.000
538.679	-2.000
538.941	-3.000
539.203	-3.000
539.465	-3.000
539.727	0.000
539.989	-2.000
540.251	2.000
540.512	0.000
540.774	0.000
541.036	0.000
541.298	1.000
541.560	-3.000
541.822	-3.000
542.084	-1.000
542.345	-4.000
542.607	1.000
542.869	-4.000
543.131	1.000
543.393	-4.000
543.655	-2.000
543.916	-5.000
544.178	-4.000
544.440	3.000
544.702	3.000
544.963	-7.000
545.225	-2.000
545.487	-5.000
545.749	-3.000
546.010	-4.000
546.272	-4.000
546.534	-4.000
546.795	-1.000
547.057	-2.000
547.319	1.000
547.581	-5.000
547.842	-1.000
548.104	2.000
548.366	-1.000
548.627	-1.000
548.889	1.000
549.150	-2.000
549.412	0.000
549.674	-1.000
549.935	-5.000
550.197	-3.000
550.459	-2.000
550.720	-2.000
550.982	-1.000
551.243	0.000
551.505	0.000
551.766	1.000
552.028	0.000
552.289	-2.000
552.551	1.000
552.813	-4.000
553.074	-3.000
553.336	-2.000
553.597	-4.000
553.859	-2.000
554.120	0.000
554.382	-1.000
554.643	-1.000
554.904	0.000
555.166	0.000
555.427	-2.000
555.689	-3.000
555.950	-4.000
556.212	0.000
556.473	-2.000
556.735	-1.000
556.996	-2.000
557.257	0.000
557.519	2.000
557.780	1.000
558.041	-3.000
558.303	-1.000
558.564	-3.000
558.826	-5.000
559.087	-4.000
559.348	-5.000
559.609	-2.000
559.871	-3.000
560.132	-1.000
560.393	-1.000
560.655	-1.000
560.916	0.000
561.177	-8.000
561.439	-2.000
561.700	0.000
561.961	-2.000
562.222	-3.000
562.484	2.000
562.745	3.000
563.006	1.000
563.267	-1.000
563.528	-4.000
563.790	-1.000
564.051	-2.000
564.312	-3.000
564.573	2.000
564.834	-5.000
565.095	3.000
565.357	1.000
565.618	-2.000
565.879	-2.000
566.140	0.000
566.401	-3.000
566.662	-1.000
566.923	1.000
567.184	-2.000
567.446	-3.000
567.707	0.000
567.968	-4.000
568.229	-4.000
568.490	-3.000
568.751	-4.000
569.012	0.000
569.273	-2.000
569.534	0.000
569.795	3.000
570.056	2.000
570.317	-6.000
570.578	-2.000
570.839	-1.000
571.100	4.000
571.361	-1.000
571.622	0.000
571.883	-1.000
572.144	0.000
572.405	-2.000
572.666	2.000
572.927	-3.000
573.188	-4.000
573.449	-3.000
573.709	-7.000
573.970	-7.000
574.231	0.000
574.492	0.000
574.753	-2.000
575.014	-4.000
575.275	-3.000
575.536	1.000
575.796	2.000
576.057	1.000
576.318	0.000
576.579	0.000
576.840	-3.000
577.100	1.000
577.361	-4.000
577.622	-4.000
577.883	-6.000
578.144	-5.000
578.404	-4.000
578.665	-3.000
578.926	-2.000
579.187	-2.000
579.447	-3.000
579.708	-2.000
579.969	-1.000
580.229	-2.000
580.490	1.000
580.751	-2.000
581.012	-1.000
581.272	-6.000
581.533	-5.000
581.794	-1.000
582.054	-3.000
582.315	-2.000
582.576	2.000
582.836	-3.000
583.097	1.000
583.357	-5.000
583.618	1.000
583.879	3.000
584.139	-3.000
584.400	-1.000
584.660	5.000
584.921	-4.000
585.181	-1.000
585.442	-1.000
585.703	-4.000
585.963	0.000
586.224	-2.000
586.484	1.000
586.745	-4.000
587.005	-3.000
587.266	1.000
587.526	-1.000
587.787	1.000
588.047	0.000
588.308	-5.000
588.568	-5.000
588.829	-1.000
589.089	-5.000
589.349	-2.000
589.610	-2.000
589.870	0.000
590.131	-2.000
590.391	-6.000
590.651	-4.000
590.912	-1.000
591.172	-5.000
591.433	3.000
591.693	1.000
591.953	-3.000
592.214	-3.000
592.474	-1.000
592.734	-1.000
592.995	-3.000
593.255	0.000
593.515	-4.000
593.776	-2.000
594.036	-7.000
594.296	0.000
594.557	1.000
594.817	-1.000
595.077	1.000
595.337	-2.000
595.598	1.000
595.858	-1.000
596.118	1.000
596.378	4.000
596.639	1.000
596.899	0.000
597.159	-11.000
597.419	-3.000
597.679	1.000
597.939	-4.000
598.200	-6.000
598.460	-6.000
598.720	2.000
598.980	4.000
599.240	2.000
599.500	-1.000
599.761	-2.000
600.021	1.000
600.281	2.000
600.541	-2.000
600.801	-1.000
601.061	0.000
601.321	2.000
601.581	-2.000
601.841	-5.000
602.101	-1.000
602.361	2.000
602.621	-3.000
602.881	1.000
603.142	0.000
603.402	-5.000
603.662	-4.000
603.922	-2.000
604.182	-2.000
604.442	-1.000
604.702	-3.000
604.961	-3.000
605.221	-4.000
605.481	-1.000
605.741	-3.000
606.001	-2.000
606.261	-1.000
606.521	-3.000
606.781	-3.000
607.041	-6.000
607.301	2.000
607.561	-7.000
607.821	-2.000
608.081	-2.000
608.340	-5.000
608.600	0.000
608.860	-3.000
609.120	-2.000
609.380	2.000
609.640	-6.000
609.899	-4.000
610.159	1.000
610.419	0.000
610.679	2.000
610.939	-3.000
611.199	0.000
611.458	4.000
611.718	0.000
611.978	-2.000
612.238	-1.000
612.497	-3.000
612.757	-2.000
613.017	-4.000
613.277	-3.000
613.536	-2.000
613.796	-3.000
614.056	1.000
614.315	-3.000
614.575	1.000
614.835	-3.000
615.094	-2.000
615.354	5.000
615.614	-4.000
615.873	-3.000
616.133	1.000
616.393	-4.000
616.652	-1.000
616.912	-3.000
617.171	-3.000
617.431	-2.000
617.691	1.000
617.950	0.000
618.210	-4.000
618.469	-2.000
618.729	-3.000
618.989	-2.000
619.248	-2.000
619.508	-4.000
619.767	2.000
620.027	-4.000
620.286	-6.000
620.546	-2.000
620.805	-4.000
621.065	-2.000
621.324	-3.000
621.584	-1.000
621.843	-2.000
622.103	0.000
622.362	-2.000
622.622	-2.000
622.881	-1.000
623.140	-4.000
623.400	-4.000
623.659	-5.000
623.919	-2.000
624.178	-3.000
624.437	0.000
624.697	-3.000
624.956	-6.000
625.216	0.000
625.475	2.000
625.734	-1.000
625.994	-2.000
626.253	-1.000
626.512	0.000
626.772	0.000
627.031	-1.000
627.290	-2.000
627.550	-6.000
627.809	0.000
628.068	3.000
628.327	-5.000
628.587	-3.000
628.846	-2.000
629.105	0.000
629.364	-1.000
629.624	1.000
629.883	-1.000
630.142	2.000
630.401	2.000
630.661	2.000
630.920	-2.000
631.179	-4.000
631.438	3.000
631.697	1.000
631.957	-1.000
632.216	1.000
632.475	-5.000
632.734	-1.000
632.993	-2.000
633.252	1.000
633.511	0.000
633.770	-6.000
634.030	0.000
634.289	-1.000
634.548	-1.000
634.807	-4.000
635.066	-1.000
635.325	-4.000
635.584	-3.000
635.843	-3.000
636.102	0.000
636.361	-1.000
636.620	0.000
636.879	-1.000
637.138	-1.000
637.397	1.000
637.656	-2.000
637.915	-3.000
638.174	-1.000
638.433	-4.000
638.692	0.000
638.951	-1.000
639.210	-1.000
639.469	-5.000
639.728	3.000
639.987	-7.000
640.246	-2.000
640.505	-3.000
640.764	1.000
641.023	1.000
641.282	-6.000
641.540	-2.000
641.799	-2.000
642.058	-4.000
642.317	3.000
642.576	2.000
642.835	-1.000
643.094	0.000
643.352	2.000
643.611	2.000
643.870	-2.000
644.129	-1.000
644.388	-5.000
644.646	-2.000
644.905	1.000
645.164	-3.000
645.423	-1.000
645.682	-7.000
645.940	-2.000
646.199	-3.000
646.458	-4.000
646.716	-1.000
646.975	-1.000
647.234	-2.000
647.493	-3.000
647.751	-4.000
648.010	-7.000
648.269	-4.000
648.527	-3.000
648.786	0.000
649.045	-2.000
649.303	-5.000
649.562	-3.000
649.821	-4.000
650.079	-1.000
650.338	1.000
650.597	-1.000
650.855	-3.000
651.114	-3.000
651.372	-4.000
651.631	0.000
651.890	-4.000
652.148	-4.000
652.407	-5.000
652.665	-1.000
652.924	0.000
653.182	-1.000
653.441	-3.000
653.699	2.000
653.958	-10.000
654.216	-6.000
654.475	-2.000
654.733	-1.000
654.992	-6.000
655.250	-5.000
655.509	9.000
655.767	112.000
656.026	422.000
656.284	616.000
656.543	414.000
656.801	178.000
657.059	60.000
657.318	14.000
657.576	-6.000
657.835	-2.000
658.093	-1.000
658.351	1.000
658.610	-4.000
658.868	-1.000
659.127	-4.000
659.385	0.000
659.643	0.000
659.902	-2.000
660.160	-2.000
660.418	0.000
660.677	-1.000
660.935	-3.000
661.193	1.000
661.452	1.000
661.710	-1.000
661.968	5.000
662.226	4.000
662.485	-3.000
662.743	1.000
663.001	-1.000
663.259	-4.000
663.518	-1.000
663.776	-4.000
664.034	-4.000
664.292	-6.000
664.550	-6.000
664.809	-4.000
665.067	-1.000
665.325	-4.000
665.583	-1.000
665.841	-2.000
666.099	1.000
666.358	-2.000
666.616	1.000
666.874	2.000
667.132	0.000
667.390	1.000
667.648	1.000
667.906	1.000
668.164	-3.000
668.423	1.000
668.681	-4.000
668.939	3.000
669.197	-5.000
669.455	1.000
669.713	-4.000
669.971	-3.000
670.229	3.000
670.487	-4.000
670.745	0.000
671.003	2.000
671.261	-6.000
671.519	-3.000
671.777	-7.000
672.035	-2.000
672.293	-1.000
672.551	-3.000
672.809	-5.000
673.067	-2.000
673.325	-6.000
673.583	-3.000
673.841	-3.000
674.099	-1.000
674.356	2.000
674.614	-6.000
674.872	0.000
675.130	1.000
675.388	-3.000
675.646	0.000
675.904	-2.000
676.162	-5.000
676.419	-2.000
676.677	0.000
676.935	0.000
677.193	-2.000
677.451	0.000
677.709	-2.000
677.966	0.000
678.224	-1.000
678.482	-1.000
678.740	2.000
678.998	1.000
679.255	-2.000
679.513	-5.000
679.771	-6.000
680.029	-3.000
680.286	-1.000
680.544	-6.000
680.802	-1.000
681.059	-5.000
681.317	-5.000
681.575	0.000
681.833	-3.000
682.090	-1.000
682.348	-2.000
682.606	1.000
682.863	3.000
683.121	3.000
683.379	-3.000
683.636	-2.000
683.894	-4.000
684.151	-1.000
684.409	-4.000
684.667	-7.000
684.924	-5.000
685.182	-2.000
685.439	-1.000
685.697	-2.000
685.955	-4.000
686.212	-4.000
686.470	-2.000
686.727	-7.000
686.985	-1.000
687.242	-5.000
687.500	1.000
687.757	-6.000
688.015	-8.000
688.272	-1.000
688.530	-2.000
688.787	-2.000
689.045	-8.000
689.302	-4.000
689.560	-2.000
689.817	-3.000
690.075	-6.000
690.332	-7.000
690.589	-3.000
690.847	-9.000
691.104	-2.000
691.362	-3.000
691.619	-3.000
691.876	0.000
692.134	-1.000
692.391	-3.000
692.649	1.000
692.906	-6.000
693.163	0.000
693.421	-6.000
693.678	-1.000
693.935	-3.000
694.193	-2.000
694.450	-2.000
694.707	0.000
694.965	-3.000
695.222	-5.000
695.479	-2.000
695.736	-3.000
695.994	-8.000
696.251	-2.000
696.508	-6.000
696.765	-3.000
697.023	2.000
697.280	-4.000
697.537	1.000
697.794	-1.000
698.052	-4.000
698.309	1.000
698.566	1.000
698.823	-2.000
699.080	-5.000
699.338	-5.000
699.595	-2.000
699.852	-2.000
700.109	-3.000
700.366	-1.000
700.623	-4.000
700.880	-5.000
701.137	-1.000
701.395	-8.000
701.652	-4.000
701.909	-3.000
702.166	-2.000
702.423	-8.000
702.680	-7.000
702.937	-2.000
703.194	-6.000
703.451	-4.000
703.708	-3.000
703.965	-3.000
704.222	-2.000
704.479	-2.000
704.736	-5.000
704.993	-3.000
705.250	-4.000
705.507	-6.000
705.764	-3.000
706.021	-3.000
706.278	-4.000
706.535	2.000
706.792	-4.000
707.049	4.000
707.306	1.000
707.563	-8.000
707.820	-6.000
708.077	-4.000
708.334	-5.000
708.591	1.000
708.847	-6.000
709.104	2.000
709.361	3.000
709.618	-4.000
709.875	-4.000
710.132	-7.000
710.389	1.000
710.645	-4.000
710.902	-3.000
711.159	0.000
711.416	-2.000
711.673	1.000
711.930	-4.000
712.186	-1.000
712.443	-2.000
712.700	-2.000
712.957	-4.000
713.213	-6.000
713.470	-2.000
713.727	0.000
713.984	-4.000
714.240	0.000
714.497	-1.000
714.754	-1.000
715.011	-3.000
715.267	0.000
715.524	-5.000
715.781	1.000
716.037	-4.000
716.294	-5.000
716.551	0.000
716.807	-2.000
717.064	1.000
717.321	2.000
717.577	2.000
717.834	0.000
718.090	0.000
718.347	3.000
718.604	1.000
718.860	-1.000
719.117	-4.000
719.373	0.000
719.630	1.000
719.886	0.000
720.143	-4.000
720.400	1.000
720.656	-4.000
720.913	-4.000
721.169	-4.000
721.426	0.000
721.682	1.000
721.939	-1.000
722.195	-3.000
722.452	-4.000
722.708	-4.000
722.965	1.000
723.221	-2.000
723.478	-4.000
723.734	-2.000
723.990	-5.000
724.247	-7.000
724.503	-7.000
724.760	-5.000
725.016	-2.000
725.273	-2.000
725.529	-2.000
725.785	0.000
726.042	1.000
726.298	-2.000
726.554	-6.000
726.811	-3.000
727.067	-4.000
727.323	-2.000
727.580	-2.000
727.836	-4.000
728.092	-3.000
728.349	-2.000
728.605	-1.000
728.861	0.000
729.118	-3.000
729.374	1.000
729.630	-1.000
729.886	-3.000
730.143	-2.000
730.399	-1.000
730.655	-1.000
730.911	-2.000
731.168	-1.000
731.424	-5.000
731.680	-3.000
731.936	-2.000
732.193	4.000
732.449	-5.000
732.705	-3.000
732.961	-8.000
733.217	-2.000
733.473	-4.000
733.730	-6.000
733.986	-3.000
734.242	-3.000
734.498	-4.000
734.754	-4.000
735.010	-5.000
735.266	-3.000
735.522	-2.000
735.778	0.000
736.035	-1.000
736.291	0.000
736.547	1.000
736.803	4.000
737.059	1.000
737.315	-5.000
737.571	1.000
737.827	-4.000
738.083	-5.000
738.339	-4.000
738.595	-3.000
738.851	-2.000
739.107	-7.000
739.363	-3.000
739.619	-5.000
739.875	1.000
740.131	3.000
740.387	-2.000
740.643	0.000
740.899	-1.000
741.155	-4.000
741.411	-4.000
741.666	-4.000
741.922	-3.000
742.178	1.000
742.434	1.000
742.690	-2.000
742.946	-3.000
743.202	1.000
743.458	-2.000
743.714	-1.000
743.969	-3.000
744.225	0.000
744.481	-3.000
744.737	-3.000
744.993	-1.000
745.249	0.000
745.504	-3.000
745.760	-6.000
746.016	-3.000
746.272	-1.000
746.527	-1.000
746.783	-4.000
747.039	1.000
747.295	-6.000
747.550	-3.000
747.806	-1.000
748.062	-4.000
748.318	-1.000
748.573	-4.000
748.829	1.000
749.085	3.000
749.340	-3.000
749.596	-2.000
749.852	-3.000
750.108	-2.000
750.363	-1.000
750.619	5.000
750.874	-4.000
751.130	-2.000
751.386	2.000
751.641	-2.000
751.897	4.000
752.153	0.000
752.408	0.000
752.664	-3.000
752.919	-1.000
753.175	2.000
753.430	-1.000
753.686	-2.000
753.942	3.000
754.197	-4.000
754.453	-2.000
754.708	4.000
754.964	2.000
755.219	-2.000
755.475	1.000
755.730	0.000
755.986	0.000
756.241	1.000
756.497	0.000
756.752	-1.000
757.008	1.000
757.263	-1.000
757.519	-1.000
757.774	1.000
758.029	1.000
758.285	-6.000
758.540	-2.000
758.796	-1.000
759.051	0.000
759.307	-4.000
759.562	-3.000
759.817	-2.000
760.073	-2.000
760.328	0.000
760.583	-2.000
760.839	-1.000
761.094	-5.000
761.349	-5.000
761.605	-2.000
761.860	-2.000
762.115	6.000
762.371	-2.000
762.626	1.000
762.881	-4.000
763.137	-3.000
763.392	-5.000
763.647	-4.000
763.902	2.000
764.158	2.000
764.413	5.000
764.668	-2.000
764.923	2.000
765.179	-1.000
765.434	0.000
765.689	-1.000
765.944	-4.000
766.199	-5.000
766.455	2.000
766.710	1.000
766.965	0.000
767.220	0.000
767.475	-4.000
767.730	-5.000
767.985	0.000
768.241	-1.000
768.496	-6.000
768.751	-4.000
769.006	-1.000
769.261	-4.000
769.516	-1.000
769.771	-3.000
770.026	-4.000
770.281	-3.000
770.536	-7.000
770.791	-3.000
771.047	-1.000
771.302	-7.000
771.557	-4.000
771.812	-2.000
772.067	-1.000
772.322	-6.000
772.577	-1.000
772.832	6.000
773.087	2.000
773.342	1.000
773.597	1.000
773.852	4.000
774.107	-1.000
774.361	0.000
774.616	0.000
774.871	-2.000
775.126	-1.000
775.381	0.000
775.636	0.000
775.891	0.000
776.146	-2.000
776.401	5.000
776.656	-1.000
776.911	3.000
777.165	0.000
777.420	1.000
777.675	-6.000
777.930	-3.000
778.185	-3.000
778.440	0.000
778.694	1.000
778.949	1.000
779.204	0.000
779.459	-1.000
779.714	-2.000
779.968	-2.000
780.223	1.000
780.478	-2.000
780.733	5.000
780.988	4.000
781.242	-2.000
781.497	-1.000
781.752	-2.000
782.006	-4.000
782.261	-3.000
782.516	-5.000
782.771	0.000
783.025	-5.000
783.280	-2.000
783.535	-4.000
783.789	0.000
784.044	-1.000
784.299	2.000
784.553	-1.000
784.808	3.000
785.063	1.000
785.317	0.000
785.572	-2.000
785.826	-3.000
786.081	-4.000
786.336	-3.000
786.590	-2.000
786.845	0.000
787.099	-2.000
787.354	3.000
787.609	2.000
787.863	2.000
788.118	1.000
788.372	4.000
788.627	3.000
788.881	1.000
789.136	-1.000
789.390	-6.000
789.645	1.000
789.899	-3.000
790.154	-1.000
790.408	-7.000
790.663	4.000
790.917	-1.000
791.172	0.000
791.426	2.000
791.680	-3.000
791.935	-7.000
792.189	-2.000
792.444	-3.000
792.698	3.000
792.953	1.000
793.207	-5.000
793.461	0.000
793.716	-3.000
793.970	6.000
794.224	1.000
794.479	2.000
794.733	0.000
794.987	0.000
795.242	2.000
795.496	3.000
795.750	-3.000
796.005	-2.000
796.259	2.000
796.513	-5.000
796.768	2.000
797.022	0.000
797.276	2.000
797.530	1.000
797.785	-1.000
798.039	7.000
798.293	3.000
798.547	2.000
798.802	-2.000
799.056	-1.000
799.310	2.000
799.564	4.000
799.819	-1.000
800.073	3.000
800.327	-2.000
800.581	-1.000
800.835	2.000
801.089	0.000
801.344	-4.000
801.598	-3.000
801.852	2.000
802.106	1.000
802.360	4.000
802.614	0.000
802.868	-4.000
803.122	-1.000
803.377	-3.000
803.631	-4.000
803.885	-3.000
804.139	-2.000
804.393	2.000
804.647	-6.000
804.901	1.000
805.155	-4.000
805.409	1.000
805.663	-2.000
805.917	-1.000
806.171	-1.000
806.425	-6.000
806.679	1.000
806.933	-3.000
807.187	-2.000
807.441	2.000
807.695	-4.000
807.949	1.000
808.203	1.000
808.457	-2.000
808.711	-1.000
808.965	-3.000
809.219	-2.000
809.473	1.000
809.726	-3.000
809.980	1.000
810.234	2.000
810.488	-3.000
810.742	-3.000
810.996	2.000
811.250	1.000
811.504	-3.000
811.757	-5.000
812.011	-4.000
812.265	0.000
812.519	3.000
812.773	-3.000
813.027	1.000
813.280	-1.000
813.534	-4.000
813.788	-1.000
814.042	1.000
814.295	-2.000
814.549	-6.000
814.803	-5.000
815.057	-6.000
815.310	3.000
815.564	0.000
815.818	-2.000
816.072	-2.000
816.325	-1.000
816.579	-5.000
816.833	-1.000
817.086	-5.000
817.340	-4.000
817.594	-1.000
817.848	2.000
818.101	0.000
818.355	1.000
818.608	0.000
818.862	-2.000
819.116	-3.000
819.369	-4.000
819.623	-1.000
819.877	-3.000
820.130	-3.000
820.384	-1.000
820.637	-5.000
820.891	-1.000
821.144	-2.000
821.398	1.000
821.652	-2.000
821.905	-1.000
822.159	-2.000
822.412	-2.000
822.666	-2.000
822.919	1.000
823.173	1.000
823.426	0.000
823.680	-4.000
823.933	0.000
824.187	-2.000
824.440	0.000
824.694	-2.000
824.947	-3.000
825.201	-2.000
825.454	-3.000
825.707	0.000
825.961	0.000
826.214	-1.000
826.468	-3.000
826.721	-1.000
826.975	-3.000
827.228	-1.000
827.481	5.000
827.735	-7.000
827.988	-4.000
828.241	-4.000
828.495	-1.000
828.748	2.000
829.001	-1.000
829.255	-3.000
829.508	-2.000
829.761	-6.000
830.015	-5.000
830.268	-3.000
830.521	-2.000
830.775	-3.000
831.028	-1.000
831.281	-2.000
831.534	-5.000
831.788	-3.000
832.041	-1.000
832.294	-1.000
832.547	-6.000
832.801	-4.000
833.054	0.000
833.307	-4.000
833.560	-1.000
833.813	2.000
834.067	2.000
834.320	-3.000
834.573	0.000
834.826	-3.000
835.079	-2.000
835.332	0.000
835.586	-4.000
835.839	-1.000
836.092	-5.000
836.345	-6.000
836.598	-3.000
836.851	-2.000
837.104	-1.000
837.357	-2.000
837.611	-4.000
837.864	0.000
838.117	0.000
838.370	-3.000
838.623	-5.000
838.876	2.000
839.129	-5.000
839.382	-2.000
839.635	-7.000
839.888	1.000
840.141	1.000
840.394	-4.000
840.647	0.000
840.900	-2.000
841.153	-1.000
841.406	-3.000
841.659	-3.000
841.912	-2.000
842.165	-2.000
842.418	0.000
842.671	-2.000
842.924	-1.000
843.176	-3.000
843.429	2.000
843.682	-1.000
843.935	-5.000
844.188	-5.000
844.441	-6.000
844.694	-7.000
844.947	-4.000
845.200	-3.000
845.452	-4.000
845.705	-1.000
845.958	2.000
846.211	-2.000
846.464	-4.000
846.717	-1.000
846.969	-2.000
847.222	-6.000
847.475	2.000
847.728	-5.000
847.981	-4.000
848.233	-7.000
848.486	-2.000
848.739	-4.000
848.992	-4.000
849.244	-3.000
849.497	-5.000
849.750	-3.000
850.003	5.000
850.255	-2.000
850.508	-4.000
850.761	3.000
851.013	-1.000
851.266	-4.000
851.519	0.000
851.771	-3.000
852.024	0.000
852.277	-3.000
852.529	-4.000
852.782	-6.000
853.035	1.000
853.287	-2.000
853.540	0.000
853.792	-1.000
854.045	-1.000
854.298	-4.000
854.550	1.000
854.803	2.000
855.055	-4.000
855.308	-2.000
855.560	-4.000
855.813	-4.000
856.066	-4.000
856.318	-5.000
856.571	-7.000
856.823	-5.000
857.076	-2.000
857.328	-2.000
857.581	1.000
857.833	-6.000
858.086	0.000
858.338	-7.000
858.591	-2.000
858.843	-1.000
859.095	-3.000
859.348	-1.000
859.600	-2.000
859.853	-3.000
860.105	-1.000
860.358	1.000
860.610	2.000
860.862	2.000
861.115	0.000
861.367	-4.000
861.620	-3.000
861.872	2.000
862.124	2.000
862.377	-2.000
862.629	2.000
862.881	-3.000
863.134	2.000
863.386	-2.000
863.638	-1.000
863.891	-5.000
864.143	-1.000
864.395	-1.000
864.648	-1.000
864.900	-6.000
865.152	-1.000
865.404	-2.000
865.657	-1.000
865.909	-4.000
866.161	-3.000
866.413	0.000
866.666	1.000
866.918	-2.000
867.170	1.000
867.422	-5.000
867.674	-3.000
867.927	-4.000
868.179	3.000
868.431	-2.000
868.683	1.000
868.935	0.000
869.187	-4.000
869.440	-3.000
869.692	-1.000
869.944	-4.000
870.196	-2.000
870.448	-2.000
870.700	-3.000
870.952	-6.000
871.204	-3.000
871.457	-4.000
871.709	-2.000
871.961	1.000
872.213	-3.000
872.465	-1.000
872.717	-6.000
872.969	2.000
873.221	2.000
873.473	-1.000
873.725	-5.000
873.977	0.000
874.229	-3.000
874.481	-8.000
874.733	-3.000
874.985	0.000
875.237	-2.000
875.489	2.000
875.741	1.000
875.993	2.000
876.245	-1.000
876.497	-2.000
876.749	-4.000
877.001	-5.000
877.253	-5.000
877.504	-6.000
877.756	-4.000
878.008	-7.000
878.260	-1.000
878.512	2.000
878.764	-3.000
879.016	1.000
879.268	-2.000
879.519	-1.000
879.771	-3.000
880.023	-1.000
880.275	-1.000
880.527	-1.000
880.779	-2.000
881.030	-6.000
881.282	-5.000
881.534	-6.000
881.786	1.000
882.038	-1.000
882.289	2.000
882.541	0.000
882.793	-2.000
883.045	1.000
883.296	-5.000
883.548	-7.000
883.800	-2.000
884.052	-1.000
884.303	-7.000
884.555	-2.000
884.807	-5.000
885.058	-4.000
885.310	8.000
885.562	-2.000
885.813	-2.000
886.065	1.000
886.317	0.000
886.568	3.000
886.820	-3.000
887.072	-1.000
887.323	-1.000
887.575	-4.000
887.826	-1.000
888.078	-1.000
888.330	-1.000
888.581	1.000
888.833	-4.000
889.084	2.000
889.336	1.000
889.587	-2.000
889.839	0.000
890.091	-3.000
890.342	0.000
890.594	-2.000
890.845	2.000
891.097	2.000
891.348	1.000
891.600	-2.000
891.851	-1.000
892.103	0.000
892.354	1.000
892.606	1.000
892.857	2.000
893.108	-4.000
893.360	-3.000
893.611	-2.000
893.863	-5.000
894.114	-5.000
894.366	-2.000
894.617	1.000
894.868	0.000
895.120	-3.000
895.371	-3.000
895.623	-4.000
895.874	0.000
896.125	-1.000
896.377	0.000
896.628	-2.000
896.879	0.000
897.131	4.000
897.382	2.000
897.633	-3.000
897.885	0.000
898.136	0.000
898.387	-4.000
898.639	-3.000
898.890	-1.000
899.141	0.000
899.392	1.000
899.644	3.000
899.895	0.000
900.146	3.000
900.397	4.000
900.649	-7.000
900.900	-1.000
901.151	1.000
901.402	0.000
901.653	0.000
901.905	2.000
902.156	0.000
902.407	1.000
902.658	0.000
902.909	2.000
903.160	-2.000
903.412	-5.000
903.663	-5.000
903.914	-3.000
904.165	-1.000
904.416	1.000
904.667	5.000
904.918	2.000
905.169	-1.000
905.421	3.000
905.672	0.000
905.923	2.000
906.174	-1.000
906.425	0.000
906.676	-1.000
906.927	-2.000
907.178	1.000
907.429	-6.000
907.680	-4.000
907.931	-2.000
908.182	-3.000
908.433	0.000
908.684	-1.000
908.935	0.000
909.186	2.000
909.437	-2.000
909.688	-2.000
909.939	-3.000
910.190	-2.000
910.441	-3.000
910.692	0.000
910.943	-1.000
911.194	-1.000
911.445	1.000
911.695	1.000
911.946	-1.000
912.197	0.000
912.448	0.000
912.699	-4.000
912.950	0.000
913.201	0.000
913.452	5.000
913.702	0.000
913.953	-1.000
914.204	-4.000
914.455	-3.000
914.706	-5.000
914.957	0.000
915.207	-1.000
915.458	-4.000
915.709	-1.000
915.960	-2.000
916.210	-2.000
916.461	2.000
916.712	0.000
916.963	-1.000
917.213	2.000
917.464	1.000
917.715	6.000
917.966	2.000
918.216	2.000
918.467	-4.000
918.718	-1.000
918.969	0.000
919.219	1.000
919.470	-4.000
919.721	-3.000
919.971	-2.000
920.222	0.000
920.473	-3.000
920.723	0.000
920.974	-2.000
921.224	-1.000
921.475	-2.000
921.726	1.000
921.976	0.000
922.227	-1.000
922.477	1.000
922.728	-3.000
922.979	-2.000
923.229	-2.000
923.480	-4.000
923.730	-2.000
923.981	-3.000
924.231	-2.000
924.482	3.000
924.732	0.000
924.983	0.000
925.233	2.000
925.484	-1.000
925.734	-1.000
925.985	0.000
926.235	3.000
926.486	1.000
926.736	-2.000
926.987	0.000
927.237	1.000
927.488	-4.000
927.738	0.000
927.989	-1.000
928.239	0.000
928.489	3.000
928.740	-3.000
928.990	-3.000
929.241	0.000
929.491	-3.000
929.741	-3.000
929.992	-3.000
930.242	1.000
930.492	-5.000
930.743	0.000
930.993	-2.000
931.243	-7.000
931.494	-2.000
931.744	-1.000
931.994	0.000
932.245	1.000
932.495	4.000
932.745	-2.000
932.996	-1.000
933.246	-2.000
933.496	5.000
933.746	-1.000
933.997	0.000
934.247	-3.000
934.497	0.000
934.747	2.000
934.998	1.000
935.248	2.000
935.498	-4.000
935.748	0.000
935.998	4.000
936.249	-1.000
936.499	-2.000
936.749	-1.000
936.999	-2.000
937.249	3.000
937.499	4.000
937.750	-2.000
938.000	-5.000
938.250	0.000
938.500	4.000
938.750	3.000
939.000	-2.000
939.250	0.000
939.500	-3.000
939.750	-4.000
940.000	0.000
940.251	-3.000
940.501	-1.000
940.751	0.000
941.001	1.000
941.251	1.000
941.501	1.000
941.751	3.000
942.001	-2.000
942.251	1.000
942.501	-1.000
942.751	0.000
943.001	1.000
943.251	0.000
943.501	-2.000
943.751	0.000
944.001	3.000
944.251	-2.000
944.501	-3.000
944.751	-3.000
945.000	-2.000
945.250	-3.000
945.500	-1.000
945.750	-3.000
946.000	-1.000
946.250	-1.000
946.500	-3.000
946.750	1.000
947.000	0.000
947.249	1.000
947.499	2.000
947.749	-3.000
947.999	-3.000
948.249	-1.000
948.499	2.000
948.749	-3.000
948.998	-2.000
949.248	2.000
949.498	1.000
949.748	-1.000
949.997	-4.000
950.247	-1.000
950.497	-6.000
950.747	-3.000
950.997	-2.000
951.246	1.000
951.496	-1.000
951.746	-2.000
951.995	-3.000
952.245	3.000
952.495	0.000
952.745	0.000
952.994	-6.000
953.244	-3.000
953.494	3.000
953.743	-2.000
953.993	2.000
954.243	-7.000
954.492	-5.000
954.742	-7.000
954.992	-2.000
955.241	2.000
955.491	-1.000
955.740	-2.000
955.990	-2.000
956.240	-4.000
956.489	0.000
956.739	3.000
956.988	1.000
957.238	-3.000
957.488	-4.000
957.737	-2.000
957.987	-1.000
958.236	-3.000
958.486	1.000
958.735	-3.000
958.985	2.000
959.234	0.000
959.484	-4.000
959.733	0.000
959.983	-1.000
960.232	-1.000
960.482	-1.000
960.731	-4.000
960.981	-1.000
961.230	0.000
961.480	-4.000
961.729	-2.000
961.978	-2.000
962.228	-2.000
962.477	0.000
962.727	1.000
962.976	-3.000
963.226	-5.000
963.475	1.000
963.724	-3.000
963.974	0.000
964.223	0.000
964.472	-1.000
964.722	0.000
964.971	-5.000
965.220	-2.000
965.470	-2.000
965.719	-4.000
965.968	-5.000
966.218	-1.000
966.467	-2.000
966.716	2.000
966.966	-4.000
967.215	-2.000
967.464	0.000
967.713	-3.000
967.963	1.000
968.212	0.000
968.461	-1.000
968.710	-4.000
968.960	-5.000
969.209	-3.000
969.458	-3.000
969.707	3.000
969.956	0.000
970.206	0.000
970.455	2.000
970.704	-2.000
970.953	-3.000
971.202	0.000
971.451	-2.000
971.701	0.000
971.950	2.000
972.199	-2.000
972.448	-3.000
972.697	-4.000
972.946	-2.000
973.195	-3.000
973.444	6.000
973.694	-3.000
973.943	-2.000
974.192	-2.000
974.441	-2.000
974.690	-4.000
974.939	-2.000
975.188	0.000
975.437	-1.000
975.686	0.000
975.935	-3.000
976.184	-3.000
976.433	-1.000
976.682	-5.000
976.931	-1.000
977.180	-2.000
977.429	-1.000
977.678	0.000
977.927	2.000
978.176	-6.000
978.425	-8.000
978.674	1.000
978.923	-5.000
979.172	-6.000
979.421	-2.000
979.670	-6.000
979.918	1.000
980.167	2.000
980.416	-3.000
980.665	-3.000
980.914	-3.000
981.163	-2.000
981.412	-2.000
981.661	-2.000
981.909	-1.000
982.158	-3.000
982.407	-4.000
982.656	-6.000
982.905	-3.000
983.154	-1.000
983.402	-4.000
983.651	-7.000
983.900	-2.000
984.149	-2.000
984.398	-4.000
984.646	-5.000
984.895	-2.000
985.144	-4.000
985.393	5.000
985.641	3.000
985.890	2.000
986.139	-3.000
986.387	-1.000
986.636	-2.000
986.885	3.000
987.134	0.000
987.382	-2.000
987.631	-2.000
987.880	1.000
988.128	1.000
988.377	-7.000
988.626	-1.000
988.874	-1.000
989.123	0.000
989.372	-1.000
989.620	-8.000
989.869	-2.000
990.117	-6.000
990.366	-5.000
990.615	-2.000
990.863	-4.000
991.112	-1.000
991.360	0.000
991.609	2.000
991.857	1.000
992.106	-5.000
992.355	0.000
992.603	-3.000
992.852	-2.000
993.100	-3.000
993.349	-3.000
993.597	-3.000
993.846	-3.000
994.094	-6.000
994.343	-4.000
994.591	-2.000
994.840	-3.000
995.088	0.000
995.336	-2.000
995.585	-2.000
995.833	2.000
996.082	-4.000
996.330	-3.000
996.579	4.000
996.827	-3.000
997.075	-1.000
997.324	-3.000
997.572	0.000
997.821	-4.000
998.069	-2.000
998.317	-1.000
998.566	-1.000
998.814	-5.000
999.062	0.000
999.311	-3.000
999.559	-8.000
999.807	-4.000
1000.056	-6.000
1000.304	-1.000
1000.552	-5.000
1000.801	-2.000
1001.049	-4.000
1001.297	-5.000
1001.546	0.000
1001.794	-1.000
1002.042	0.000
1002.290	-5.000
1002.539	-3.000
1002.787	0.000
1003.035	-3.000
1003.283	-1.000
1003.531	2.000
1003.780	-2.000
1004.028	1.000
1004.276	-4.000
1004.524	-5.000
1004.772	-3.000
1005.021	-2.000
1005.269	0.000
1005.517	-1.000
1005.765	-3.000
1006.013	-3.000
1006.261	-4.000
1006.509	-1.000
1006.758	-1.000
1007.006	-3.000
1007.254	-6.000
1007.502	1.000
1007.750	-4.000
1007.998	-4.000
1008.246	-2.000
1008.494	-10.000
1008.742	-7.000
1008.990	-6.000
1009.238	-4.000
1009.486	-2.000
1009.735	-3.000
1009.983	-2.000
1010.231	-4.000
1010.479	2.000
1010.727	1.000
1010.975	-1.000
1011.223	2.000
1011.471	1.000
1011.719	-3.000
1011.967	-1.000
1012.214	-2.000
1012.462	-6.000
1012.710	-2.000
1012.958	-3.000
1013.206	2.000
1013.454	2.000
1013.702	-5.000
1013.950	-5.000
1014.198	1.000
1014.446	-2.000
1014.694	-4.000
1014.942	-4.000
1015.189	0.000
1015.437	0.000
1015.685	2.000
1015.933	-3.000
1016.181	-5.000
1016.429	-5.000
1016.677	-4.000
1016.924	-5.000
1017.172	0.000
1017.420	-2.000
1017.668	-3.000
1017.916	-3.000
1018.163	-1.000
1018.411	-6.000
1018.659	-3.000
1018.907	-8.000
1019.155	-2.000
1019.402	-1.000
1019.650	-3.000
1019.898	-6.000
1020.145	-6.000
1020.393	-3.000
1020.641	-3.000
1020.889	-3.000
1021.136	-2.000
1021.384	0.000
1021.632	0.000
1021.879	-3.000
1022.127	-3.000
1022.375	-3.000
1022.622	0.000
1022.870	-4.000
1023.118	-5.000
1023.365	-1.000
1023.613	-9.000
1023.861	-6.000
1024.108	-7.000
1024.356	0.000
1024.603	-3.000
1024.851	1.000
1025.099	-2.000
1025.346	-5.000
1025.594	-3.000
1025.841	3.000
1026.089	-4.000
1026.336	-3.000
1026.584	-4.000
1026.832	1.000
1027.079	2.000
1027.327	-1.000
1027.574	0.000
1027.822	-4.000
1028.069	-4.000
1028.317	-2.000
1028.564	-3.000
1028.812	-6.000
1029.059	-3.000
1029.306	-1.000
1029.554	-1.000
1029.801	0.000
1030.049	-3.000
1030.296	2.000
1030.544	-3.000
1030.791	-4.000
1031.039	-1.000
1031.286	-3.000
1031.533	-1.000
1031.781	-1.000
1032.028	0.000
1032.276	-2.000
1032.523	-2.000
1032.770	-7.000
1033.018	-5.000
1033.265	-4.000
1033.512	-3.000
1033.760	-5.000
1034.007	-3.000
1034.254	-1.000
1034.502	3.000
1034.749	1.000
1034.996	1.000
1035.243	-4.000
1035.491	-3.000
1035.738	-3.000
1035.985	-5.000
1036.233	-4.000
1036.480	-3.000
1036.727	-7.000
1036.974	-5.000
1037.222	-3.000
1037.469	-3.000
1037.716	-3.000
1037.963	-1.000
1038.210	0.000
1038.458	-1.000
1038.705	-3.000
1038.952	0.000
1039.199	-5.000
1039.446	-4.000
1039.693	-3.000
1039.941	0.000
1040.188	-1.000
1040.435	0.000
1040.682	0.000
1040.929	0.000
1041.176	0.000
1041.423	-2.000
1041.671	1.000
1041.918	-4.000
1042.165	-2.000
1042.412	-1.000
1042.659	-2.000
1042.906	1.000
1043.153	-6.000
1043.400	-3.000
1043.647	-3.000
1043.894	-1.000
1044.141	0.000
1044.388	-5.000
1044.635	-2.000
1044.882	0.000
1045.129	-3.000
1045.376	-3.000
1045.623	-5.000
1045.870	-1.000
1046.117	-2.000
1046.364	-4.000
1046.611	-4.000
1046.858	-2.000
1047.105	-4.000
1047.352	-4.000
1047.599	0.000
1047.846	0.000
1048.093	-1.000
1048.340	-4.000
1048.587	-1.000
1048.833	-3.000
1049.080	-4.000
1049.327	-2.000
1049.574	-2.000
1049.821	1.000
1050.068	2.000
1050.315	-1.000
1050.561	3.000
1050.808	-3.000
1051.055	-1.000
1051.302	-2.000
1051.549	0.000
1051.796	-2.000
1052.042	1.000
1052.289	1.000
1052.536	-2.000
1052.783	-4.000
1053.030	-3.000
1053.276	-3.000
1053.523	-4.000
1053.770	-5.000
1054.017	-3.000
1054.263	-2.000
1054.510	-4.000
1054.757	-6.000
1055.003	2.000
1055.250	-5.000
1055.497	-3.000
1055.744	-3.000
1055.990	-7.000
1056.237	-5.000
1056.484	-1.000
1056.730	4.000
1056.977	-2.000
1057.224	1.000
1057.470	-3.000
1057.717	1.000
1057.963	2.000
1058.210	-4.000
1058.457	3.000
1058.703	0.000
1058.950	3.000
1059.197	0.000
1059.443	1.000
1059.690	-2.000
1059.936	0.000
1060.183	-2.000
1060.429	0.000
1060.676	-4.000
1060.922	-1.000
1061.169	-3.000
1061.416	-3.000
1061.662	1.000
1061.909	-1.000
1062.155	-4.000
1062.402	-1.000
1062.648	-1.000
1062.895	1.000
1063.141	-1.000
1063.387	0.000
1063.634	-1.000
1063.880	-5.000
1064.127	-5.000
1064.373	-2.000
1064.620	-4.000
1064.866	-1.000
1065.113	0.000
1065.359	-1.000
1065.605	-3.000
1065.852	2.000
1066.098	2.000
1066.345	-2.000
1066.591	2.000
1066.837	2.000
1067.084	-1.000
1067.330	0.000
1067.576	-2.000
1067.823	1.000
1068.069	2.000
1068.315	-1.000
1068.562	4.000
1068.808	1.000
1069.054	-2.000
1069.301	-2.000
1069.547	0.000
1069.793	0.000
1070.040	1.000
1070.286	2.000
1070.532	-1.000
1070.778	-3.000
1071.025	1.000
1071.271	2.000
1071.517	-3.000
1071.763	1.000
1072.009	-2.000
1072.256	0.000
1072.502	4.000
1072.748	-3.000
1072.994	-2.000
1073.240	-3.000
1073.487	-1.000
1073.733	-1.000
1073.979	3.000
1074.225	1.000
1074.471	-1.000
1074.717	-3.000
1074.964	-4.000
1075.210	-3.000
1075.456	0.000
1075.702	1.000
1075.948	-6.000
1076.194	-2.000
1076.440	2.000
1076.686	-1.000
1076.932	0.000
1077.178	-1.000
1077.425	1.000
1077.671	0.000
1077.917	0.000
1078.163	0.000
1078.409	-3.000
1078.655	5.000
1078.901	-2.000
1079.147	-2.000
1079.393	2.000
1079.639	2.000
1079.885	-1.000
1080.131	-2.000
1080.377	-4.000
1080.623	3.000
1080.869	-2.000
1081.115	0.000
1081.361	0.000
1081.606	-2.000
1081.852	-3.000
1082.098	3.000
1082.344	0.000
1082.590	-2.000
1082.836	-6.000
1083.082	3.000
1083.328	-2.000
1083.574	0.000
1083.820	-1.000
1084.065	-5.000
1084.311	-1.000
1084.557	-2.000
1084.803	2.000
1085.049	3.000
1085.295	3.000
1085.541	-2.000
1085.786	0.000
1086.032	3.000
1086.278	0.000
1086.524	3.000
1086.770	0.000
1087.015	2.000
1087.261	1.000
1087.507	1.000
1087.753	0.000
1087.998	-5.000
1088.244	-4.000
1088.490	-2.000
1088.736	-1.000
1088.981	-1.000
1089.227	0.000
1089.473	-4.000
1089.719	-2.000
1089.964	4.000
1090.210	-3.000
1090.456	0.000
1090.701	4.000
1090.947	2.000
1091.193	0.000
1091.438	1.000
1091.684	3.000
1091.930	-2.000
1092.175	0.000
1092.421	-6.000
1092.666	-3.000
1092.912	-1.000
1093.158	2.000
1093.403	-5.000
1093.649	-1.000
1093.894	-2.000
1094.140	-3.000
1094.386	-1.000
1094.631	0.000
1094.877	-5.000
1095.122	0.000
1095.368	1.000
1095.613	-1.000
1095.859	3.000
1096.104	1.000
1096.350	-2.000
1096.595	0.000
1096.841	0.000
1097.086	-2.000
1097.332	0.000
1097.577	-2.000
1097.823	-2.000
1098.068	4.000
1098.314	-2.000
1098.559	0.000
1098.805	3.000
1099.050	1.000
1099.295	5.000
1099.541	-3.000
1099.786	-3.000
+++++End Spectral Data+++++
