Spectrometer Data
EN
------------------------------
Saving Time:Wed, Jan 21, 2026 13:57:08
Device Name:Aurora 4000
Version Info:V9_84
Serial Number:220120190816098402001100
Integral Time(æs):5000
Avg Count:1
Smoothness:0
Data Type:(0 1)Wavelength-Delete Dark
X-Axis Unit:nm
Y-Axis Unit:counts
Pixel Count:3482
Reserve0:250
Other Description:
+++++Begin Spectral Data+++++
200.149	3.000
200.421	1.000
200.693	-1.000
200.966	3.000
201.238	0.000
201.510	-1.000
201.782	-2.000
202.054	-4.000
202.326	-3.000
202.598	-3.000
202.870	-2.000
203.142	-5.000
203.414	-2.000
203.686	3.000
203.958	-4.000
204.230	0.000
204.502	-1.000
204.774	-2.000
205.046	4.000
205.318	0.000
205.590	2.000
205.861	-1.000
206.133	-4.000
206.405	-1.000
206.677	0.000
206.949	-4.000
207.221	-1.000
207.493	-3.000
207.765	-1.000
208.037	-1.000
208.308	0.000
208.580	1.000
208.852	1.000
209.124	-5.000
209.396	-3.000
209.668	-2.000
209.939	0.000
210.211	3.000
210.483	-3.000
210.755	-3.000
211.027	1.000
211.298	-2.000
211.570	5.000
211.842	5.000
212.114	-1.000
212.385	0.000
212.657	2.000
212.929	-3.000
213.200	2.000
213.472	-1.000
213.744	-3.000
214.016	-1.000
214.287	0.000
214.559	0.000
214.831	2.000
215.102	-3.000
215.374	3.000
215.645	0.000
215.917	4.000
216.189	2.000
216.460	0.000
216.732	-1.000
217.004	-4.000
217.275	0.000
217.547	-2.000
217.818	-2.000
218.090	-3.000
218.361	-3.000
218.633	1.000
218.904	-3.000
219.176	-1.000
219.448	0.000
219.719	-2.000
219.991	-1.000
220.262	0.000
220.534	-1.000
220.805	0.000
221.076	5.000
221.348	-1.000
221.619	1.000
221.891	1.000
222.162	1.000
222.434	0.000
222.705	-1.000
222.977	3.000
223.248	-4.000
223.519	-2.000
223.791	0.000
224.062	-2.000
224.333	0.000
224.605	0.000
224.876	1.000
225.148	0.000
225.419	4.000
225.690	-1.000
225.962	0.000
226.233	-3.000
226.504	0.000
226.775	5.000
227.047	-2.000
227.318	-2.000
227.589	1.000
227.861	2.000
228.132	2.000
228.403	2.000
228.674	-3.000
228.946	-2.000
229.217	-1.000
229.488	1.000
229.759	-1.000
230.030	-4.000
230.302	-3.000
230.573	-3.000
230.844	2.000
231.115	0.000
231.386	1.000
231.657	-1.000
231.929	-2.000
232.200	3.000
232.471	1.000
232.742	-3.000
233.013	-3.000
233.284	-2.000
233.555	1.000
233.826	1.000
234.097	1.000
234.369	2.000
234.640	0.000
234.911	4.000
235.182	1.000
235.453	0.000
235.724	-5.000
235.995	-7.000
236.266	1.000
236.537	-4.000
236.808	3.000
237.079	1.000
237.350	-1.000
237.621	0.000
237.892	-1.000
238.163	4.000
238.434	-2.000
238.705	3.000
238.975	-1.000
239.246	-4.000
239.517	-1.000
239.788	-3.000
240.059	0.000
240.330	-5.000
240.601	-4.000
240.872	-3.000
241.143	0.000
241.413	-3.000
241.684	0.000
241.955	-3.000
242.226	-3.000
242.497	-3.000
242.768	-1.000
243.038	-3.000
243.309	2.000
243.580	3.000
243.851	1.000
244.122	-4.000
244.392	-4.000
244.663	-2.000
244.934	-1.000
245.205	0.000
245.475	-2.000
245.746	1.000
246.017	1.000
246.288	-2.000
246.558	-2.000
246.829	-5.000
247.100	0.000
247.370	-1.000
247.641	2.000
247.912	5.000
248.182	-1.000
248.453	0.000
248.724	-1.000
248.994	-4.000
249.265	-3.000
249.535	-1.000
249.806	-2.000
250.077	-5.000
250.347	1.000
250.618	0.000
250.888	2.000
251.159	-3.000
251.430	-1.000
251.700	-3.000
251.971	-4.000
252.241	-1.000
252.512	0.000
252.782	0.000
253.053	-3.000
253.323	-3.000
253.594	0.000
253.864	-2.000
254.135	3.000
254.405	-3.000
254.676	3.000
254.946	0.000
255.216	-2.000
255.487	2.000
255.757	-7.000
256.028	-4.000
256.298	0.000
256.569	-3.000
256.839	-4.000
257.109	-5.000
257.380	-3.000
257.650	-3.000
257.920	-3.000
258.191	-1.000
258.461	2.000
258.731	-3.000
259.002	-1.000
259.272	-4.000
259.542	-4.000
259.813	-1.000
260.083	-2.000
260.353	-2.000
260.624	-4.000
260.894	-4.000
261.164	-4.000
261.434	-7.000
261.705	-3.000
261.975	-3.000
262.245	0.000
262.515	-2.000
262.786	1.000
263.056	0.000
263.326	0.000
263.596	1.000
263.866	-2.000
264.137	-4.000
264.407	1.000
264.677	0.000
264.947	1.000
265.217	-2.000
265.487	2.000
265.757	-2.000
266.027	1.000
266.298	-1.000
266.568	1.000
266.838	-4.000
267.108	0.000
267.378	-3.000
267.648	-3.000
267.918	3.000
268.188	-1.000
268.458	-4.000
268.728	-2.000
268.998	-2.000
269.268	-4.000
269.538	-4.000
269.808	-5.000
270.078	2.000
270.348	-1.000
270.618	3.000
270.888	-3.000
271.158	-2.000
271.428	-3.000
271.698	-4.000
271.968	-2.000
272.238	-5.000
272.508	-4.000
272.778	-6.000
273.048	-5.000
273.318	-4.000
273.587	-2.000
273.857	1.000
274.127	0.000
274.397	0.000
274.667	-3.000
274.937	-5.000
275.207	1.000
275.476	-3.000
275.746	-1.000
276.016	-3.000
276.286	-1.000
276.556	-4.000
276.826	0.000
277.095	2.000
277.365	-3.000
277.635	-2.000
277.905	-2.000
278.174	-8.000
278.444	-2.000
278.714	-4.000
278.984	-4.000
279.253	-4.000
279.523	0.000
279.793	-1.000
280.062	-2.000
280.332	0.000
280.602	-4.000
280.871	-2.000
281.141	-2.000
281.411	-1.000
281.680	-6.000
281.950	2.000
282.220	-9.000
282.489	-5.000
282.759	4.000
283.029	2.000
283.298	-2.000
283.568	1.000
283.837	-2.000
284.107	-1.000
284.376	-2.000
284.646	-9.000
284.916	0.000
285.185	-3.000
285.455	-3.000
285.724	-2.000
285.994	-3.000
286.263	3.000
286.533	-4.000
286.802	-2.000
287.072	-3.000
287.341	-5.000
287.611	-3.000
287.880	-3.000
288.149	-5.000
288.419	-1.000
288.688	-2.000
288.958	-2.000
289.227	-4.000
289.497	-2.000
289.766	-2.000
290.035	4.000
290.305	2.000
290.574	0.000
290.844	-5.000
291.113	0.000
291.382	-1.000
291.652	-1.000
291.921	-2.000
292.190	-2.000
292.460	-5.000
292.729	-2.000
292.998	3.000
293.268	-1.000
293.537	-6.000
293.806	-2.000
294.075	-3.000
294.345	-1.000
294.614	-3.000
294.883	-7.000
295.152	-4.000
295.422	-3.000
295.691	1.000
295.960	-4.000
296.229	-5.000
296.498	0.000
296.768	0.000
297.037	-3.000
297.306	-4.000
297.575	-5.000
297.844	-5.000
298.114	-2.000
298.383	-4.000
298.652	-3.000
298.921	-2.000
299.190	-2.000
299.459	-3.000
299.728	-4.000
299.997	-2.000
300.266	2.000
300.536	-3.000
300.805	-2.000
301.074	-3.000
301.343	-4.000
301.612	1.000
301.881	3.000
302.150	-4.000
302.419	-1.000
302.688	0.000
302.957	0.000
303.226	0.000
303.495	0.000
303.764	-3.000
304.033	-3.000
304.302	-1.000
304.571	-3.000
304.840	-2.000
305.109	-5.000
305.378	-1.000
305.646	-1.000
305.915	1.000
306.184	0.000
306.453	-1.000
306.722	-1.000
306.991	-3.000
307.260	-2.000
307.529	-2.000
307.798	-4.000
308.066	1.000
308.335	-2.000
308.604	1.000
308.873	2.000
309.142	-3.000
309.411	-1.000
309.679	1.000
309.948	-4.000
310.217	0.000
310.486	-5.000
310.755	-2.000
311.023	-3.000
311.292	-2.000
311.561	0.000
311.830	-2.000
312.098	-1.000
312.367	-4.000
312.636	-9.000
312.904	-3.000
313.173	3.000
313.442	-4.000
313.711	-6.000
313.979	0.000
314.248	-2.000
314.517	-1.000
314.785	-2.000
315.054	-2.000
315.322	-2.000
315.591	-1.000
315.860	-5.000
316.128	-2.000
316.397	-3.000
316.665	-4.000
316.934	0.000
317.203	-5.000
317.471	-3.000
317.740	0.000
318.008	-5.000
318.277	1.000
318.545	-1.000
318.814	-2.000
319.082	-2.000
319.351	-3.000
319.619	-5.000
319.888	-1.000
320.156	-2.000
320.425	2.000
320.693	0.000
320.962	-3.000
321.230	-2.000
321.499	-3.000
321.767	-3.000
322.036	0.000
322.304	-4.000
322.573	-1.000
322.841	0.000
323.109	-3.000
323.378	-2.000
323.646	-3.000
323.914	-2.000
324.183	-3.000
324.451	-5.000
324.720	-5.000
324.988	0.000
325.256	-2.000
325.525	0.000
325.793	-2.000
326.061	0.000
326.330	2.000
326.598	-3.000
326.866	-4.000
327.134	0.000
327.403	-4.000
327.671	0.000
327.939	-2.000
328.207	-2.000
328.476	3.000
328.744	-2.000
329.012	3.000
329.280	-8.000
329.549	-1.000
329.817	-5.000
330.085	-1.000
330.353	-4.000
330.621	1.000
330.889	-2.000
331.158	-2.000
331.426	-6.000
331.694	-4.000
331.962	-1.000
332.230	-6.000
332.498	-1.000
332.766	3.000
333.035	0.000
333.303	0.000
333.571	0.000
333.839	-3.000
334.107	2.000
334.375	-2.000
334.643	-5.000
334.911	-2.000
335.179	-2.000
335.447	0.000
335.715	-6.000
335.983	-2.000
336.251	-5.000
336.519	-5.000
336.787	-3.000
337.055	-3.000
337.323	-5.000
337.591	-2.000
337.859	-3.000
338.127	-6.000
338.395	2.000
338.663	-4.000
338.931	-4.000
339.199	3.000
339.467	-5.000
339.734	0.000
340.002	2.000
340.270	3.000
340.538	-2.000
340.806	1.000
341.074	1.000
341.342	-3.000
341.610	0.000
341.877	-3.000
342.145	-1.000
342.413	0.000
342.681	1.000
342.949	2.000
343.216	-2.000
343.484	-2.000
343.752	0.000
344.020	-1.000
344.288	-1.000
344.555	-4.000
344.823	-4.000
345.091	-2.000
345.359	-4.000
345.626	-3.000
345.894	-1.000
346.162	-2.000
346.429	-3.000
346.697	-3.000
346.965	0.000
347.232	0.000
347.500	0.000
347.768	-1.000
348.035	3.000
348.303	-4.000
348.571	0.000
348.838	-2.000
349.106	-2.000
349.374	-5.000
349.641	-4.000
349.909	-3.000
350.176	-2.000
350.444	0.000
350.712	-3.000
350.979	-2.000
351.247	2.000
351.514	0.000
351.782	-3.000
352.049	-2.000
352.317	-1.000
352.584	0.000
352.852	-6.000
353.119	-7.000
353.387	-8.000
353.654	-7.000
353.922	-8.000
354.189	-2.000
354.457	-3.000
354.724	-1.000
354.992	0.000
355.259	-2.000
355.526	1.000
355.794	-2.000
356.061	-4.000
356.329	-7.000
356.596	-7.000
356.863	-4.000
357.131	-2.000
357.398	-8.000
357.666	-6.000
357.933	-2.000
358.200	-5.000
358.468	-3.000
358.735	-3.000
359.002	1.000
359.270	0.000
359.537	0.000
359.804	1.000
360.071	-1.000
360.339	-2.000
360.606	1.000
360.873	-3.000
361.141	-2.000
361.408	-5.000
361.675	2.000
361.942	-3.000
362.210	4.000
362.477	-1.000
362.744	-1.000
363.011	-3.000
363.278	1.000
363.546	-2.000
363.813	-1.000
364.080	-3.000
364.347	-5.000
364.614	-6.000
364.881	-3.000
365.148	-2.000
365.416	-1.000
365.683	-3.000
365.950	3.000
366.217	-3.000
366.484	-4.000
366.751	-3.000
367.018	1.000
367.285	2.000
367.552	-2.000
367.819	-2.000
368.086	-3.000
368.354	3.000
368.621	-2.000
368.888	-2.000
369.155	-4.000
369.422	1.000
369.689	-1.000
369.956	-2.000
370.223	-5.000
370.490	-4.000
370.757	-6.000
371.024	-2.000
371.290	-3.000
371.557	-4.000
371.824	-5.000
372.091	-1.000
372.358	2.000
372.625	4.000
372.892	-5.000
373.159	-6.000
373.426	-1.000
373.693	-3.000
373.960	-1.000
374.226	-2.000
374.493	-1.000
374.760	-6.000
375.027	-4.000
375.294	-4.000
375.561	-3.000
375.827	-6.000
376.094	1.000
376.361	-5.000
376.628	-2.000
376.895	0.000
377.161	2.000
377.428	-3.000
377.695	-5.000
377.962	-3.000
378.228	-1.000
378.495	-2.000
378.762	-7.000
379.029	-11.000
379.295	1.000
379.562	-1.000
379.829	-7.000
380.095	-5.000
380.362	-5.000
380.629	-3.000
380.896	-4.000
381.162	-2.000
381.429	-7.000
381.695	-2.000
381.962	-1.000
382.229	-1.000
382.495	1.000
382.762	2.000
383.029	1.000
383.295	-2.000
383.562	-7.000
383.828	1.000
384.095	1.000
384.361	-4.000
384.628	-4.000
384.895	-3.000
385.161	-2.000
385.428	-4.000
385.694	0.000
385.961	0.000
386.227	-2.000
386.494	2.000
386.760	-5.000
387.027	-5.000
387.293	-5.000
387.560	-4.000
387.826	-2.000
388.092	-3.000
388.359	-7.000
388.625	-4.000
388.892	-2.000
389.158	1.000
389.425	1.000
389.691	-1.000
389.957	-9.000
390.224	-1.000
390.490	3.000
390.757	-2.000
391.023	-2.000
391.289	-6.000
391.556	-2.000
391.822	-2.000
392.088	-1.000
392.355	0.000
392.621	1.000
392.887	1.000
393.154	0.000
393.420	0.000
393.686	-2.000
393.952	-5.000
394.219	-5.000
394.485	-1.000
394.751	-5.000
395.017	-2.000
395.284	0.000
395.550	-2.000
395.816	-2.000
396.082	-6.000
396.349	0.000
396.615	-6.000
396.881	-5.000
397.147	-3.000
397.413	-4.000
397.679	-6.000
397.946	-4.000
398.212	-2.000
398.478	-1.000
398.744	-2.000
399.010	-1.000
399.276	-4.000
399.542	-4.000
399.808	-2.000
400.075	1.000
400.341	-2.000
400.607	-4.000
400.873	-5.000
401.139	-3.000
401.405	-6.000
401.671	-4.000
401.937	3.000
402.203	-3.000
402.469	-2.000
402.735	-4.000
403.001	-2.000
403.267	-4.000
403.533	-3.000
403.799	-2.000
404.065	-3.000
404.331	0.000
404.597	-4.000
404.863	-2.000
405.129	1.000
405.395	-1.000
405.661	-4.000
405.927	-2.000
406.192	-3.000
406.458	-2.000
406.724	-2.000
406.990	-2.000
407.256	-2.000
407.522	-3.000
407.788	2.000
408.054	-4.000
408.319	-2.000
408.585	1.000
408.851	-1.000
409.117	-3.000
409.383	1.000
409.649	-2.000
409.914	-1.000
410.180	-2.000
410.446	-1.000
410.712	1.000
410.977	-1.000
411.243	1.000
411.509	-5.000
411.775	-4.000
412.040	-3.000
412.306	-2.000
412.572	-3.000
412.838	-8.000
413.103	-3.000
413.369	-3.000
413.635	-3.000
413.900	-7.000
414.166	-3.000
414.432	-3.000
414.697	-4.000
414.963	0.000
415.229	5.000
415.494	-1.000
415.760	-1.000
416.025	-3.000
416.291	-2.000
416.557	-1.000
416.822	-1.000
417.088	-2.000
417.353	-6.000
417.619	-4.000
417.884	-3.000
418.150	-4.000
418.416	-1.000
418.681	2.000
418.947	2.000
419.212	-2.000
419.478	-7.000
419.743	-4.000
420.009	-5.000
420.274	-5.000
420.540	-7.000
420.805	-7.000
421.071	-7.000
421.336	1.000
421.601	-2.000
421.867	-3.000
422.132	-5.000
422.398	-3.000
422.663	0.000
422.929	-4.000
423.194	-3.000
423.459	-7.000
423.725	-6.000
423.990	1.000
424.256	-2.000
424.521	1.000
424.786	-7.000
425.052	2.000
425.317	1.000
425.582	-1.000
425.848	1.000
426.113	-7.000
426.378	-6.000
426.643	-3.000
426.909	-4.000
427.174	-3.000
427.439	-3.000
427.705	-4.000
427.970	3.000
428.235	-2.000
428.500	-1.000
428.766	-2.000
429.031	-2.000
429.296	-7.000
429.561	-3.000
429.826	-2.000
430.092	-2.000
430.357	-3.000
430.622	-1.000
430.887	-5.000
431.152	-5.000
431.417	-8.000
431.683	-5.000
431.948	-4.000
432.213	4.000
432.478	7.000
432.743	-3.000
433.008	-3.000
433.273	-3.000
433.538	1.000
433.803	-1.000
434.069	-2.000
434.334	-1.000
434.599	-3.000
434.864	-4.000
435.129	-3.000
435.394	-6.000
435.659	0.000
435.924	-4.000
436.189	-2.000
436.454	-6.000
436.719	-2.000
436.984	0.000
437.249	-4.000
437.514	-1.000
437.779	-3.000
438.044	-9.000
438.309	-9.000
438.574	-5.000
438.838	-10.000
439.103	-8.000
439.368	-8.000
439.633	-2.000
439.898	-4.000
440.163	-3.000
440.428	-5.000
440.693	-1.000
440.958	-6.000
441.222	-4.000
441.487	-4.000
441.752	-1.000
442.017	-4.000
442.282	-5.000
442.547	-3.000
442.811	-3.000
443.076	-5.000
443.341	-1.000
443.606	-3.000
443.871	-4.000
444.135	-5.000
444.400	-7.000
444.665	-5.000
444.930	0.000
445.194	1.000
445.459	-6.000
445.724	-3.000
445.989	-4.000
446.253	-2.000
446.518	-2.000
446.783	-2.000
447.047	-1.000
447.312	1.000
447.577	3.000
447.841	3.000
448.106	-6.000
448.371	-7.000
448.635	-3.000
448.900	-6.000
449.165	-2.000
449.429	-4.000
449.694	-7.000
449.958	-5.000
450.223	-6.000
450.488	-3.000
450.752	0.000
451.017	-5.000
451.281	-7.000
451.546	-3.000
451.810	-3.000
452.075	-3.000
452.339	-5.000
452.604	-1.000
452.868	-1.000
453.133	-5.000
453.397	-3.000
453.662	-2.000
453.926	-2.000
454.191	-3.000
454.455	0.000
454.720	1.000
454.984	-6.000
455.249	0.000
455.513	0.000
455.778	-5.000
456.042	-4.000
456.306	-6.000
456.571	-3.000
456.835	-1.000
457.100	-1.000
457.364	-7.000
457.628	-2.000
457.893	1.000
458.157	-3.000
458.421	-2.000
458.686	-3.000
458.950	-3.000
459.214	-7.000
459.479	-1.000
459.743	-2.000
460.007	-5.000
460.272	-2.000
460.536	-5.000
460.800	-1.000
461.064	-1.000
461.329	-1.000
461.593	-3.000
461.857	-2.000
462.121	0.000
462.386	-5.000
462.650	-1.000
462.914	-5.000
463.178	-3.000
463.442	-3.000
463.707	-2.000
463.971	-3.000
464.235	-2.000
464.499	0.000
464.763	-6.000
465.027	-5.000
465.292	-3.000
465.556	-6.000
465.820	-1.000
466.084	-6.000
466.348	-3.000
466.612	4.000
466.876	-1.000
467.140	-4.000
467.404	3.000
467.668	-3.000
467.933	-2.000
468.197	-2.000
468.461	-5.000
468.725	-7.000
468.989	-4.000
469.253	-1.000
469.517	-3.000
469.781	0.000
470.045	-6.000
470.309	-5.000
470.573	-6.000
470.837	-4.000
471.101	-1.000
471.365	-3.000
471.629	-5.000
471.892	-4.000
472.156	5.000
472.420	-4.000
472.684	-2.000
472.948	-2.000
473.212	-3.000
473.476	0.000
473.740	-7.000
474.004	-1.000
474.268	-2.000
474.531	-1.000
474.795	0.000
475.059	-2.000
475.323	-1.000
475.587	-2.000
475.851	-1.000
476.114	2.000
476.378	-5.000
476.642	-3.000
476.906	-1.000
477.170	1.000
477.433	-1.000
477.697	0.000
477.961	-6.000
478.225	-3.000
478.488	-6.000
478.752	-3.000
479.016	-7.000
479.280	-4.000
479.543	-3.000
479.807	-6.000
480.071	-2.000
480.334	-2.000
480.598	-2.000
480.862	-2.000
481.125	-5.000
481.389	-3.000
481.653	1.000
481.916	-4.000
482.180	-2.000
482.444	0.000
482.707	-4.000
482.971	-3.000
483.234	-7.000
483.498	-7.000
483.762	-7.000
484.025	-5.000
484.289	-2.000
484.552	0.000
484.816	-2.000
485.079	-4.000
485.343	-2.000
485.607	-2.000
485.870	-5.000
486.134	-4.000
486.397	-2.000
486.661	-1.000
486.924	-3.000
487.188	0.000
487.451	-3.000
487.715	0.000
487.978	-1.000
488.241	0.000
488.505	-3.000
488.768	-4.000
489.032	-2.000
489.295	-1.000
489.559	-2.000
489.822	2.000
490.085	2.000
490.349	2.000
490.612	-2.000
490.876	-4.000
491.139	-3.000
491.402	-3.000
491.666	-1.000
491.929	-1.000
492.192	0.000
492.456	1.000
492.719	1.000
492.982	-1.000
493.246	-1.000
493.509	-5.000
493.772	0.000
494.035	-1.000
494.299	-3.000
494.562	-3.000
494.825	-4.000
495.088	-5.000
495.352	2.000
495.615	-4.000
495.878	-3.000
496.141	0.000
496.405	-3.000
496.668	-2.000
496.931	-7.000
497.194	-1.000
497.457	0.000
497.721	-1.000
497.984	-2.000
498.247	0.000
498.510	1.000
498.773	-4.000
499.036	-6.000
499.299	-4.000
499.562	-6.000
499.826	-5.000
500.089	-5.000
500.352	-6.000
500.615	-6.000
500.878	-2.000
501.141	-4.000
501.404	-5.000
501.667	0.000
501.930	0.000
502.193	-2.000
502.456	0.000
502.719	-7.000
502.982	-4.000
503.245	-2.000
503.508	-1.000
503.771	2.000
504.034	-2.000
504.297	3.000
504.560	-3.000
504.823	-3.000
505.086	-4.000
505.349	4.000
505.612	-1.000
505.875	-1.000
506.138	-2.000
506.401	-1.000
506.664	1.000
506.927	2.000
507.189	-1.000
507.452	-2.000
507.715	-2.000
507.978	-1.000
508.241	-1.000
508.504	-2.000
508.767	-3.000
509.029	-1.000
509.292	2.000
509.555	-3.000
509.818	1.000
510.081	2.000
510.343	-4.000
510.606	-3.000
510.869	-2.000
511.132	1.000
511.395	0.000
511.657	-5.000
511.920	-3.000
512.183	0.000
512.446	-1.000
512.708	-7.000
512.971	0.000
513.234	-3.000
513.496	-1.000
513.759	-4.000
514.022	0.000
514.284	-4.000
514.547	-5.000
514.810	-2.000
515.072	-4.000
515.335	-6.000
515.598	0.000
515.860	-5.000
516.123	-3.000
516.386	-5.000
516.648	0.000
516.911	-1.000
517.173	-3.000
517.436	-3.000
517.698	-1.000
517.961	-5.000
518.224	-2.000
518.486	2.000
518.749	-3.000
519.011	-2.000
519.274	-3.000
519.536	1.000
519.799	-6.000
520.061	-2.000
520.324	1.000
520.586	0.000
520.849	0.000
521.111	2.000
521.374	0.000
521.636	-2.000
521.899	0.000
522.161	0.000
522.423	-3.000
522.686	1.000
522.948	-7.000
523.211	-5.000
523.473	-6.000
523.736	-4.000
523.998	3.000
524.260	-1.000
524.523	-3.000
524.785	1.000
525.047	4.000
525.310	-1.000
525.572	-4.000
525.834	-1.000
526.097	-4.000
526.359	-1.000
526.621	1.000
526.884	-3.000
527.146	-2.000
527.408	-1.000
527.670	0.000
527.933	3.000
528.195	4.000
528.457	-2.000
528.719	-2.000
528.982	-1.000
529.244	-2.000
529.506	-2.000
529.768	-1.000
530.031	1.000
530.293	-3.000
530.555	-2.000
530.817	2.000
531.079	2.000
531.342	3.000
531.604	-3.000
531.866	-1.000
532.128	0.000
532.390	1.000
532.652	0.000
532.914	-3.000
533.176	-1.000
533.439	-1.000
533.701	-5.000
533.963	-1.000
534.225	3.000
534.487	-1.000
534.749	1.000
535.011	0.000
535.273	0.000
535.535	5.000
535.797	-1.000
536.059	1.000
536.321	3.000
536.583	0.000
536.845	0.000
537.107	0.000
537.369	-4.000
537.631	1.000
537.893	-2.000
538.155	3.000
538.417	1.000
538.679	-2.000
538.941	-1.000
539.203	-3.000
539.465	-2.000
539.727	0.000
539.989	2.000
540.251	6.000
540.512	2.000
540.774	-1.000
541.036	-1.000
541.298	-1.000
541.560	-2.000
541.822	-1.000
542.084	-1.000
542.345	-4.000
542.607	-2.000
542.869	-3.000
543.131	1.000
543.393	1.000
543.655	0.000
543.916	0.000
544.178	0.000
544.440	-1.000
544.702	0.000
544.963	-1.000
545.225	-1.000
545.487	-2.000
545.749	-2.000
546.010	-3.000
546.272	-2.000
546.534	-2.000
546.795	0.000
547.057	0.000
547.319	-1.000
547.581	-2.000
547.842	0.000
548.104	2.000
548.366	1.000
548.627	-3.000
548.889	1.000
549.150	0.000
549.412	1.000
549.674	-1.000
549.935	-3.000
550.197	-3.000
550.459	-3.000
550.720	-1.000
550.982	0.000
551.243	3.000
551.505	3.000
551.766	-1.000
552.028	1.000
552.289	-4.000
552.551	-1.000
552.813	-5.000
553.074	0.000
553.336	0.000
553.597	2.000
553.859	-2.000
554.120	1.000
554.382	-1.000
554.643	0.000
554.904	-6.000
555.166	2.000
555.427	-2.000
555.689	-3.000
555.950	-4.000
556.212	1.000
556.473	-4.000
556.735	-2.000
556.996	-3.000
557.257	-2.000
557.519	-1.000
557.780	-2.000
558.041	0.000
558.303	0.000
558.564	-2.000
558.826	-6.000
559.087	-2.000
559.348	-3.000
559.609	0.000
559.871	-1.000
560.132	-5.000
560.393	-1.000
560.655	-5.000
560.916	-1.000
561.177	-4.000
561.439	-3.000
561.700	-2.000
561.961	0.000
562.222	-2.000
562.484	5.000
562.745	2.000
563.006	0.000
563.267	0.000
563.528	-4.000
563.790	0.000
564.051	0.000
564.312	-5.000
564.573	2.000
564.834	-5.000
565.095	-3.000
565.357	-2.000
565.618	-4.000
565.879	1.000
566.140	1.000
566.401	-2.000
566.662	3.000
566.923	1.000
567.184	-4.000
567.446	-4.000
567.707	0.000
567.968	1.000
568.229	-3.000
568.490	-4.000
568.751	-4.000
569.012	0.000
569.273	-2.000
569.534	3.000
569.795	-1.000
570.056	3.000
570.317	-1.000
570.578	-2.000
570.839	-1.000
571.100	-1.000
571.361	-1.000
571.622	0.000
571.883	-5.000
572.144	-2.000
572.405	-6.000
572.666	0.000
572.927	-2.000
573.188	0.000
573.449	-5.000
573.709	-5.000
573.970	-9.000
574.231	-2.000
574.492	-1.000
574.753	-3.000
575.014	-2.000
575.275	-2.000
575.536	-2.000
575.796	0.000
576.057	3.000
576.318	-4.000
576.579	0.000
576.840	-4.000
577.100	-2.000
577.361	-6.000
577.622	-7.000
577.883	-5.000
578.144	-3.000
578.404	0.000
578.665	2.000
578.926	-1.000
579.187	-1.000
579.447	-4.000
579.708	-3.000
579.969	-2.000
580.229	-2.000
580.490	0.000
580.751	-4.000
581.012	-1.000
581.272	-6.000
581.533	-4.000
581.794	-2.000
582.054	-3.000
582.315	-1.000
582.576	4.000
582.836	-1.000
583.097	2.000
583.357	-2.000
583.618	1.000
583.879	3.000
584.139	2.000
584.400	-1.000
584.660	3.000
584.921	-5.000
585.181	-5.000
585.442	-3.000
585.703	-5.000
585.963	1.000
586.224	-1.000
586.484	4.000
586.745	-4.000
587.005	1.000
587.266	3.000
587.526	-4.000
587.787	-6.000
588.047	-4.000
588.308	-6.000
588.568	-7.000
588.829	0.000
589.089	-4.000
589.349	-1.000
589.610	-2.000
589.870	-4.000
590.131	0.000
590.391	-3.000
590.651	-1.000
590.912	1.000
591.172	0.000
591.433	-1.000
591.693	-2.000
591.953	-5.000
592.214	-3.000
592.474	-1.000
592.734	-4.000
592.995	-2.000
593.255	-1.000
593.515	-6.000
593.776	-3.000
594.036	-2.000
594.296	-1.000
594.557	-7.000
594.817	-4.000
595.077	2.000
595.337	-1.000
595.598	-2.000
595.858	-3.000
596.118	-1.000
596.378	-1.000
596.639	-3.000
596.899	-3.000
597.159	-12.000
597.419	-1.000
597.679	-4.000
597.939	-5.000
598.200	-3.000
598.460	-10.000
598.720	-3.000
598.980	-2.000
599.240	0.000
599.500	-1.000
599.761	-3.000
600.021	-2.000
600.281	-3.000
600.541	-5.000
600.801	-7.000
601.061	-5.000
601.321	-5.000
601.581	-1.000
601.841	-4.000
602.101	-3.000
602.361	-2.000
602.621	-4.000
602.881	-2.000
603.142	-4.000
603.402	-6.000
603.662	-8.000
603.922	-1.000
604.182	-5.000
604.442	-5.000
604.702	-7.000
604.961	-6.000
605.221	-3.000
605.481	-5.000
605.741	-1.000
606.001	-2.000
606.261	0.000
606.521	-5.000
606.781	0.000
607.041	-2.000
607.301	-3.000
607.561	-6.000
607.821	-1.000
608.081	0.000
608.340	0.000
608.600	-4.000
608.860	2.000
609.120	0.000
609.380	0.000
609.640	-6.000
609.899	-2.000
610.159	-3.000
610.419	-3.000
610.679	2.000
610.939	-8.000
611.199	-3.000
611.458	-3.000
611.718	2.000
611.978	-5.000
612.238	0.000
612.497	-3.000
612.757	-3.000
613.017	-1.000
613.277	-4.000
613.536	-4.000
613.796	-3.000
614.056	-1.000
614.315	-8.000
614.575	-8.000
614.835	-6.000
615.094	-7.000
615.354	0.000
615.614	-6.000
615.873	-5.000
616.133	0.000
616.393	-1.000
616.652	1.000
616.912	-6.000
617.171	-3.000
617.431	-5.000
617.691	0.000
617.950	-1.000
618.210	-5.000
618.469	-7.000
618.729	-5.000
618.989	-6.000
619.248	-4.000
619.508	-6.000
619.767	-3.000
620.027	-5.000
620.286	-2.000
620.546	1.000
620.805	-6.000
621.065	0.000
621.324	1.000
621.584	-5.000
621.843	-3.000
622.103	-2.000
622.362	1.000
622.622	-1.000
622.881	-1.000
623.140	0.000
623.400	-1.000
623.659	-3.000
623.919	-3.000
624.178	-5.000
624.437	-2.000
624.697	-1.000
624.956	-3.000
625.216	-3.000
625.475	-3.000
625.734	0.000
625.994	1.000
626.253	-4.000
626.512	-3.000
626.772	-1.000
627.031	-1.000
627.290	-2.000
627.550	-7.000
627.809	0.000
628.068	1.000
628.327	-2.000
628.587	-5.000
628.846	-6.000
629.105	-2.000
629.364	0.000
629.624	-3.000
629.883	-3.000
630.142	-2.000
630.401	-1.000
630.661	1.000
630.920	2.000
631.179	-4.000
631.438	-1.000
631.697	-1.000
631.957	-3.000
632.216	1.000
632.475	-4.000
632.734	2.000
632.993	-3.000
633.252	1.000
633.511	-1.000
633.770	-5.000
634.030	-1.000
634.289	-3.000
634.548	-2.000
634.807	-3.000
635.066	2.000
635.325	0.000
635.584	-2.000
635.843	-7.000
636.102	1.000
636.361	-2.000
636.620	0.000
636.879	1.000
637.138	-1.000
637.397	0.000
637.656	2.000
637.915	-2.000
638.174	-1.000
638.433	-4.000
638.692	-3.000
638.951	-1.000
639.210	-2.000
639.469	-2.000
639.728	4.000
639.987	0.000
640.246	-1.000
640.505	-6.000
640.764	-1.000
641.023	1.000
641.282	-3.000
641.540	0.000
641.799	-5.000
642.058	-3.000
642.317	0.000
642.576	3.000
642.835	3.000
643.094	-6.000
643.352	1.000
643.611	2.000
643.870	-3.000
644.129	-2.000
644.388	-4.000
644.646	-1.000
644.905	-2.000
645.164	-3.000
645.423	1.000
645.682	0.000
645.940	-1.000
646.199	-1.000
646.458	-6.000
646.716	-4.000
646.975	1.000
647.234	-4.000
647.493	-3.000
647.751	-1.000
648.010	0.000
648.269	1.000
648.527	0.000
648.786	-3.000
649.045	-2.000
649.303	-7.000
649.562	-3.000
649.821	-2.000
650.079	1.000
650.338	4.000
650.597	1.000
650.855	-5.000
651.114	-5.000
651.372	-1.000
651.631	1.000
651.890	-2.000
652.148	3.000
652.407	-4.000
652.665	0.000
652.924	-3.000
653.182	-3.000
653.441	-4.000
653.699	2.000
653.958	-7.000
654.216	-2.000
654.475	2.000
654.733	-2.000
654.992	-3.000
655.250	-2.000
655.509	-4.000
655.767	-7.000
656.026	53.000
656.284	76.000
656.543	52.000
656.801	15.000
657.059	-5.000
657.318	-7.000
657.576	-2.000
657.835	-7.000
658.093	0.000
658.351	0.000
658.610	-6.000
658.868	-4.000
659.127	-5.000
659.385	0.000
659.643	-2.000
659.902	-3.000
660.160	-3.000
660.418	-4.000
660.677	-4.000
660.935	-6.000
661.193	-3.000
661.452	-1.000
661.710	-5.000
661.968	4.000
662.226	-3.000
662.485	-2.000
662.743	0.000
663.001	0.000
663.259	2.000
663.518	2.000
663.776	-1.000
664.034	-3.000
664.292	-8.000
664.550	-7.000
664.809	-5.000
665.067	2.000
665.325	-2.000
665.583	1.000
665.841	0.000
666.099	-4.000
666.358	-4.000
666.616	-1.000
666.874	2.000
667.132	-2.000
667.390	-1.000
667.648	-1.000
667.906	1.000
668.164	-3.000
668.423	-3.000
668.681	-5.000
668.939	0.000
669.197	-4.000
669.455	-4.000
669.713	-4.000
669.971	0.000
670.229	0.000
670.487	1.000
670.745	2.000
671.003	4.000
671.261	-6.000
671.519	0.000
671.777	-6.000
672.035	-3.000
672.293	2.000
672.551	-3.000
672.809	-3.000
673.067	-5.000
673.325	-6.000
673.583	-3.000
673.841	-1.000
674.099	-2.000
674.356	3.000
674.614	-4.000
674.872	0.000
675.130	1.000
675.388	-2.000
675.646	2.000
675.904	-1.000
676.162	-4.000
676.419	-4.000
676.677	4.000
676.935	1.000
677.193	2.000
677.451	1.000
677.709	-1.000
677.966	2.000
678.224	2.000
678.482	-1.000
678.740	1.000
678.998	-1.000
679.255	-5.000
679.513	-6.000
679.771	-2.000
680.029	-1.000
680.286	0.000
680.544	-5.000
680.802	-5.000
681.059	-4.000
681.317	-3.000
681.575	-2.000
681.833	-4.000
682.090	-4.000
682.348	-5.000
682.606	-5.000
682.863	-2.000
683.121	-2.000
683.379	1.000
683.636	-2.000
683.894	-5.000
684.151	2.000
684.409	1.000
684.667	-4.000
684.924	-4.000
685.182	1.000
685.439	1.000
685.697	-4.000
685.955	-1.000
686.212	-2.000
686.470	-4.000
686.727	-3.000
686.985	1.000
687.242	-3.000
687.500	0.000
687.757	0.000
688.015	-7.000
688.272	-2.000
688.530	-2.000
688.787	-2.000
689.045	-2.000
689.302	-1.000
689.560	4.000
689.817	-2.000
690.075	0.000
690.332	-3.000
690.589	1.000
690.847	-9.000
691.104	-1.000
691.362	-2.000
691.619	2.000
691.876	4.000
692.134	-1.000
692.391	-1.000
692.649	1.000
692.906	0.000
693.163	1.000
693.421	-2.000
693.678	-1.000
693.935	-4.000
694.193	-2.000
694.450	-2.000
694.707	-1.000
694.965	-3.000
695.222	-4.000
695.479	-1.000
695.736	-2.000
695.994	1.000
696.251	-1.000
696.508	-7.000
696.765	-6.000
697.023	1.000
697.280	-4.000
697.537	-1.000
697.794	-3.000
698.052	-3.000
698.309	3.000
698.566	-3.000
698.823	-2.000
699.080	-2.000
699.338	-5.000
699.595	-2.000
699.852	-4.000
700.109	-2.000
700.366	2.000
700.623	1.000
700.880	-4.000
701.137	0.000
701.395	-8.000
701.652	-4.000
701.909	-1.000
702.166	5.000
702.423	-4.000
702.680	-1.000
702.937	-3.000
703.194	1.000
703.451	-1.000
703.708	-3.000
703.965	-2.000
704.222	1.000
704.479	-1.000
704.736	-2.000
704.993	-5.000
705.250	-4.000
705.507	-2.000
705.764	-1.000
706.021	-3.000
706.278	2.000
706.535	-1.000
706.792	0.000
707.049	-1.000
707.306	4.000
707.563	-3.000
707.820	-2.000
708.077	-7.000
708.334	-5.000
708.591	-3.000
708.847	-3.000
709.104	2.000
709.361	2.000
709.618	-3.000
709.875	-1.000
710.132	-7.000
710.389	-1.000
710.645	0.000
710.902	-4.000
711.159	0.000
711.416	-5.000
711.673	-2.000
711.930	-4.000
712.186	-2.000
712.443	-5.000
712.700	-1.000
712.957	-4.000
713.213	-6.000
713.470	-2.000
713.727	1.000
713.984	-3.000
714.240	1.000
714.497	-2.000
714.754	-3.000
715.011	-2.000
715.267	-1.000
715.524	-3.000
715.781	-2.000
716.037	-6.000
716.294	0.000
716.551	-1.000
716.807	-1.000
717.064	3.000
717.321	3.000
717.577	2.000
717.834	3.000
718.090	-1.000
718.347	1.000
718.604	-2.000
718.860	-1.000
719.117	-3.000
719.373	-1.000
719.630	0.000
719.886	-2.000
720.143	0.000
720.400	0.000
720.656	-3.000
720.913	-4.000
721.169	-3.000
721.426	0.000
721.682	-1.000
721.939	0.000
722.195	1.000
722.452	-6.000
722.708	-4.000
722.965	2.000
723.221	3.000
723.478	1.000
723.734	0.000
723.990	-5.000
724.247	-3.000
724.503	-3.000
724.760	-3.000
725.016	-3.000
725.273	1.000
725.529	-1.000
725.785	-3.000
726.042	1.000
726.298	-5.000
726.554	-1.000
726.811	0.000
727.067	0.000
727.323	-6.000
727.580	-2.000
727.836	-2.000
728.092	-1.000
728.349	0.000
728.605	-5.000
728.861	-7.000
729.118	-3.000
729.374	0.000
729.630	0.000
729.886	2.000
730.143	1.000
730.399	-1.000
730.655	0.000
730.911	-4.000
731.168	-1.000
731.424	-2.000
731.680	-1.000
731.936	-2.000
732.193	3.000
732.449	-1.000
732.705	0.000
732.961	-5.000
733.217	-5.000
733.473	-4.000
733.730	-5.000
733.986	-2.000
734.242	-5.000
734.498	-2.000
734.754	-2.000
735.010	-3.000
735.266	5.000
735.522	-2.000
735.778	4.000
736.035	2.000
736.291	-4.000
736.547	1.000
736.803	1.000
737.059	-4.000
737.315	-3.000
737.571	-2.000
737.827	-4.000
738.083	-4.000
738.339	-4.000
738.595	-4.000
738.851	0.000
739.107	-6.000
739.363	-5.000
739.619	-6.000
739.875	-3.000
740.131	0.000
740.387	-1.000
740.643	-3.000
740.899	-7.000
741.155	-2.000
741.411	-3.000
741.666	-3.000
741.922	-4.000
742.178	-1.000
742.434	-1.000
742.690	-3.000
742.946	-6.000
743.202	-1.000
743.458	-6.000
743.714	-2.000
743.969	-3.000
744.225	5.000
744.481	-3.000
744.737	-1.000
744.993	2.000
745.249	2.000
745.504	-4.000
745.760	-2.000
746.016	-1.000
746.272	-4.000
746.527	-2.000
746.783	-6.000
747.039	-4.000
747.295	-3.000
747.550	-1.000
747.806	-2.000
748.062	-7.000
748.318	-1.000
748.573	-3.000
748.829	0.000
749.085	2.000
749.340	-4.000
749.596	0.000
749.852	-4.000
750.108	-1.000
750.363	0.000
750.619	4.000
750.874	-1.000
751.130	-1.000
751.386	2.000
751.641	-1.000
751.897	-1.000
752.153	-5.000
752.408	-3.000
752.664	-5.000
752.919	-4.000
753.175	1.000
753.430	-6.000
753.686	-3.000
753.942	1.000
754.197	-3.000
754.453	-2.000
754.708	-2.000
754.964	-3.000
755.219	3.000
755.475	-2.000
755.730	-2.000
755.986	-2.000
756.241	-1.000
756.497	-2.000
756.752	-3.000
757.008	-1.000
757.263	-1.000
757.519	-2.000
757.774	-3.000
758.029	-1.000
758.285	-5.000
758.540	-3.000
758.796	-5.000
759.051	0.000
759.307	-5.000
759.562	-5.000
759.817	-3.000
760.073	-6.000
760.328	-3.000
760.583	-1.000
760.839	-2.000
761.094	-7.000
761.349	-4.000
761.605	-4.000
761.860	-4.000
762.115	1.000
762.371	-2.000
762.626	-4.000
762.881	-8.000
763.137	-5.000
763.392	-6.000
763.647	-1.000
763.902	-1.000
764.158	-2.000
764.413	4.000
764.668	1.000
764.923	-1.000
765.179	0.000
765.434	-5.000
765.689	-2.000
765.944	-4.000
766.199	-5.000
766.455	-1.000
766.710	-2.000
766.965	0.000
767.220	0.000
767.475	-1.000
767.730	-3.000
767.985	-1.000
768.241	2.000
768.496	-3.000
768.751	-1.000
769.006	0.000
769.261	-3.000
769.516	-1.000
769.771	-1.000
770.026	0.000
770.281	1.000
770.536	-6.000
770.791	-3.000
771.047	-1.000
771.302	-2.000
771.557	-1.000
771.812	-2.000
772.067	-1.000
772.322	-3.000
772.577	0.000
772.832	4.000
773.087	-1.000
773.342	-3.000
773.597	-2.000
773.852	-2.000
774.107	-4.000
774.361	-2.000
774.616	1.000
774.871	-4.000
775.126	-3.000
775.381	-2.000
775.636	-2.000
775.891	-1.000
776.146	-3.000
776.401	3.000
776.656	-1.000
776.911	0.000
777.165	-4.000
777.420	1.000
777.675	-3.000
777.930	0.000
778.185	-3.000
778.440	-1.000
778.694	3.000
778.949	-3.000
779.204	-4.000
779.459	-7.000
779.714	-4.000
779.968	-1.000
780.223	-4.000
780.478	-3.000
780.733	2.000
780.988	1.000
781.242	0.000
781.497	-2.000
781.752	-1.000
782.006	-6.000
782.261	-4.000
782.516	-6.000
782.771	3.000
783.025	-3.000
783.280	1.000
783.535	-3.000
783.789	-5.000
784.044	-5.000
784.299	1.000
784.553	-2.000
784.808	2.000
785.063	-6.000
785.317	0.000
785.572	2.000
785.826	0.000
786.081	-2.000
786.336	-3.000
786.590	-4.000
786.845	-2.000
787.099	2.000
787.354	-1.000
787.609	-1.000
787.863	-4.000
788.118	-6.000
788.372	4.000
788.627	1.000
788.881	2.000
789.136	-1.000
789.390	-1.000
789.645	0.000
789.899	-2.000
790.154	0.000
790.408	-2.000
790.663	2.000
790.917	2.000
791.172	1.000
791.426	-1.000
791.680	-4.000
791.935	-5.000
792.189	-7.000
792.444	-5.000
792.698	0.000
792.953	-3.000
793.207	-4.000
793.461	1.000
793.716	0.000
793.970	0.000
794.224	-1.000
794.479	-2.000
794.733	-2.000
794.987	-5.000
795.242	-3.000
795.496	-1.000
795.750	-3.000
796.005	-1.000
796.259	2.000
796.513	-4.000
796.768	-1.000
797.022	-1.000
797.276	-3.000
797.530	0.000
797.785	-4.000
798.039	-1.000
798.293	-1.000
798.547	-2.000
798.802	-4.000
799.056	1.000
799.310	4.000
799.564	1.000
799.819	-1.000
800.073	0.000
800.327	2.000
800.581	1.000
800.835	-2.000
801.089	-3.000
801.344	-5.000
801.598	-2.000
801.852	3.000
802.106	0.000
802.360	1.000
802.614	0.000
802.868	-2.000
803.122	-1.000
803.377	-4.000
803.631	-2.000
803.885	2.000
804.139	3.000
804.393	0.000
804.647	-6.000
804.901	-2.000
805.155	-5.000
805.409	3.000
805.663	-5.000
805.917	1.000
806.171	-3.000
806.425	-4.000
806.679	-1.000
806.933	-3.000
807.187	0.000
807.441	1.000
807.695	-3.000
807.949	-3.000
808.203	0.000
808.457	-3.000
808.711	2.000
808.965	2.000
809.219	-3.000
809.473	-2.000
809.726	-7.000
809.980	-3.000
810.234	-5.000
810.488	-5.000
810.742	-3.000
810.996	0.000
811.250	-3.000
811.504	-4.000
811.757	-5.000
812.011	-4.000
812.265	1.000
812.519	1.000
812.773	0.000
813.027	-3.000
813.280	2.000
813.534	-5.000
813.788	4.000
814.042	2.000
814.295	1.000
814.549	0.000
814.803	0.000
815.057	-4.000
815.310	1.000
815.564	-3.000
815.818	-1.000
816.072	-1.000
816.325	3.000
816.579	-1.000
816.833	2.000
817.086	-5.000
817.340	-4.000
817.594	-2.000
817.848	-1.000
818.101	0.000
818.355	-2.000
818.608	2.000
818.862	1.000
819.116	3.000
819.369	-2.000
819.623	1.000
819.877	-4.000
820.130	-2.000
820.384	-4.000
820.637	-2.000
820.891	-1.000
821.144	-1.000
821.398	-2.000
821.652	1.000
821.905	-4.000
822.159	-3.000
822.412	-7.000
822.666	-5.000
822.919	2.000
823.173	-2.000
823.426	0.000
823.680	-1.000
823.933	1.000
824.187	-5.000
824.440	-1.000
824.694	-1.000
824.947	-4.000
825.201	1.000
825.454	-5.000
825.707	2.000
825.961	-4.000
826.214	-5.000
826.468	0.000
826.721	-1.000
826.975	-1.000
827.228	-2.000
827.481	3.000
827.735	3.000
827.988	-6.000
828.241	-3.000
828.495	3.000
828.748	2.000
829.001	0.000
829.255	0.000
829.508	-4.000
829.761	-6.000
830.015	-3.000
830.268	0.000
830.521	0.000
830.775	0.000
831.028	-3.000
831.281	-4.000
831.534	2.000
831.788	-1.000
832.041	-2.000
832.294	-4.000
832.547	-6.000
832.801	-7.000
833.054	-5.000
833.307	-1.000
833.560	-4.000
833.813	0.000
834.067	1.000
834.320	1.000
834.573	-3.000
834.826	-4.000
835.079	-4.000
835.332	-3.000
835.586	-1.000
835.839	-4.000
836.092	-4.000
836.345	-4.000
836.598	-3.000
836.851	0.000
837.104	-2.000
837.357	1.000
837.611	-2.000
837.864	2.000
838.117	-1.000
838.370	-2.000
838.623	-5.000
838.876	0.000
839.129	-1.000
839.382	-2.000
839.635	0.000
839.888	1.000
840.141	4.000
840.394	0.000
840.647	2.000
840.900	-4.000
841.153	-1.000
841.406	1.000
841.659	-4.000
841.912	-1.000
842.165	-2.000
842.418	-4.000
842.671	1.000
842.924	1.000
843.176	-4.000
843.429	2.000
843.682	3.000
843.935	-6.000
844.188	-3.000
844.441	-2.000
844.694	-2.000
844.947	-1.000
845.200	-1.000
845.452	-6.000
845.705	-4.000
845.958	-2.000
846.211	-1.000
846.464	2.000
846.717	-1.000
846.969	5.000
847.222	-3.000
847.475	2.000
847.728	-5.000
847.981	-2.000
848.233	-3.000
848.486	1.000
848.739	-2.000
848.992	-2.000
849.244	0.000
849.497	-3.000
849.750	-3.000
850.003	0.000
850.255	-1.000
850.508	0.000
850.761	3.000
851.013	2.000
851.266	1.000
851.519	-3.000
851.771	1.000
852.024	0.000
852.277	-2.000
852.529	-1.000
852.782	-4.000
853.035	2.000
853.287	1.000
853.540	0.000
853.792	-1.000
854.045	-1.000
854.298	-5.000
854.550	-4.000
854.803	2.000
855.055	-3.000
855.308	3.000
855.560	-4.000
855.813	-2.000
856.066	-3.000
856.318	1.000
856.571	-6.000
856.823	-3.000
857.076	0.000
857.328	0.000
857.581	1.000
857.833	-5.000
858.086	3.000
858.338	-2.000
858.591	2.000
858.843	0.000
859.095	-2.000
859.348	0.000
859.600	1.000
859.853	-5.000
860.105	-3.000
860.358	0.000
860.610	3.000
860.862	2.000
861.115	2.000
861.367	-2.000
861.620	0.000
861.872	4.000
862.124	2.000
862.377	-1.000
862.629	5.000
862.881	-1.000
863.134	-1.000
863.386	-4.000
863.638	-1.000
863.891	-1.000
864.143	0.000
864.395	1.000
864.648	-1.000
864.900	-4.000
865.152	-3.000
865.404	-1.000
865.657	1.000
865.909	-1.000
866.161	0.000
866.413	-1.000
866.666	0.000
866.918	-3.000
867.170	-1.000
867.422	-4.000
867.674	1.000
867.927	-3.000
868.179	-3.000
868.431	-1.000
868.683	-4.000
868.935	0.000
869.187	-1.000
869.440	-1.000
869.692	-2.000
869.944	-2.000
870.196	0.000
870.448	-5.000
870.700	0.000
870.952	-4.000
871.204	1.000
871.457	0.000
871.709	1.000
871.961	2.000
872.213	2.000
872.465	2.000
872.717	-2.000
872.969	2.000
873.221	4.000
873.473	-2.000
873.725	-2.000
873.977	-4.000
874.229	-1.000
874.481	-5.000
874.733	1.000
874.985	0.000
875.237	-4.000
875.489	1.000
875.741	0.000
875.993	-3.000
876.245	1.000
876.497	-4.000
876.749	-6.000
877.001	-3.000
877.253	-3.000
877.504	2.000
877.756	0.000
878.008	-5.000
878.260	-5.000
878.512	0.000
878.764	-4.000
879.016	-2.000
879.268	-4.000
879.519	0.000
879.771	-2.000
880.023	-2.000
880.275	-2.000
880.527	1.000
880.779	0.000
881.030	-2.000
881.282	-3.000
881.534	-6.000
881.786	-2.000
882.038	-2.000
882.289	0.000
882.541	-2.000
882.793	-1.000
883.045	-2.000
883.296	-4.000
883.548	-5.000
883.800	-1.000
884.052	-1.000
884.303	-2.000
884.555	1.000
884.807	-2.000
885.058	-3.000
885.310	2.000
885.562	2.000
885.813	0.000
886.065	-2.000
886.317	4.000
886.568	1.000
886.820	0.000
887.072	0.000
887.323	0.000
887.575	-1.000
887.826	0.000
888.078	-4.000
888.330	0.000
888.581	-2.000
888.833	-4.000
889.084	-4.000
889.336	2.000
889.587	4.000
889.839	2.000
890.091	0.000
890.342	-4.000
890.594	-2.000
890.845	-4.000
891.097	-1.000
891.348	0.000
891.600	-5.000
891.851	-1.000
892.103	0.000
892.354	-1.000
892.606	0.000
892.857	0.000
893.108	-2.000
893.360	-2.000
893.611	-1.000
893.863	0.000
894.114	-3.000
894.366	1.000
894.617	2.000
894.868	-1.000
895.120	-1.000
895.371	-3.000
895.623	-3.000
895.874	1.000
896.125	-2.000
896.377	0.000
896.628	-1.000
896.879	-2.000
897.131	0.000
897.382	3.000
897.633	-1.000
897.885	-1.000
898.136	0.000
898.387	1.000
898.639	-1.000
898.890	-5.000
899.141	1.000
899.392	-5.000
899.644	2.000
899.895	-3.000
900.146	2.000
900.397	-2.000
900.649	-3.000
900.900	0.000
901.151	-1.000
901.402	-5.000
901.653	2.000
901.905	0.000
902.156	4.000
902.407	0.000
902.658	-2.000
902.909	-1.000
903.160	-2.000
903.412	1.000
903.663	-1.000
903.914	-1.000
904.165	-1.000
904.416	3.000
904.667	4.000
904.918	-2.000
905.169	-1.000
905.421	0.000
905.672	-3.000
905.923	2.000
906.174	-1.000
906.425	-1.000
906.676	-4.000
906.927	-3.000
907.178	-1.000
907.429	-5.000
907.680	-4.000
907.931	1.000
908.182	-6.000
908.433	1.000
908.684	1.000
908.935	0.000
909.186	4.000
909.437	2.000
909.688	1.000
909.939	-5.000
910.190	0.000
910.441	1.000
910.692	0.000
910.943	-2.000
911.194	-4.000
911.445	0.000
911.695	-1.000
911.946	-6.000
912.197	-6.000
912.448	0.000
912.699	-3.000
912.950	-1.000
913.201	-2.000
913.452	4.000
913.702	3.000
913.953	-3.000
914.204	1.000
914.455	0.000
914.706	-5.000
914.957	0.000
915.207	0.000
915.458	-6.000
915.709	1.000
915.960	3.000
916.210	-2.000
916.461	2.000
916.712	-1.000
916.963	-4.000
917.213	-4.000
917.464	-7.000
917.715	3.000
917.966	0.000
918.216	-1.000
918.467	-6.000
918.718	0.000
918.969	-1.000
919.219	-3.000
919.470	-5.000
919.721	-1.000
919.971	-1.000
920.222	1.000
920.473	-5.000
920.723	2.000
920.974	-3.000
921.224	-2.000
921.475	-3.000
921.726	0.000
921.976	-2.000
922.227	1.000
922.477	2.000
922.728	0.000
922.979	-3.000
923.229	0.000
923.480	-1.000
923.730	0.000
923.981	-4.000
924.231	-4.000
924.482	-3.000
924.732	-4.000
924.983	-5.000
925.233	-3.000
925.484	-2.000
925.734	-2.000
925.985	1.000
926.235	-1.000
926.486	-1.000
926.736	-2.000
926.987	-3.000
927.237	-5.000
927.488	-1.000
927.738	0.000
927.989	2.000
928.239	-3.000
928.489	-2.000
928.740	-7.000
928.990	0.000
929.241	-3.000
929.491	-2.000
929.741	-4.000
929.992	2.000
930.242	-3.000
930.492	-4.000
930.743	-2.000
930.993	-3.000
931.243	-4.000
931.494	-2.000
931.744	-2.000
931.994	-4.000
932.245	-2.000
932.495	-3.000
932.745	-5.000
932.996	-1.000
933.246	-4.000
933.496	2.000
933.746	-1.000
933.997	0.000
934.247	-3.000
934.497	-2.000
934.747	1.000
934.998	-1.000
935.248	0.000
935.498	0.000
935.748	0.000
935.998	3.000
936.249	-1.000
936.499	-3.000
936.749	-2.000
936.999	-5.000
937.249	0.000
937.499	1.000
937.750	-3.000
938.000	-4.000
938.250	-2.000
938.500	1.000
938.750	2.000
939.000	-4.000
939.250	-1.000
939.500	-1.000
939.750	-3.000
940.000	4.000
940.251	0.000
940.501	-2.000
940.751	4.000
941.001	0.000
941.251	-2.000
941.501	-1.000
941.751	2.000
942.001	-4.000
942.251	-2.000
942.501	-2.000
942.751	1.000
943.001	1.000
943.251	0.000
943.501	-3.000
943.751	-5.000
944.001	-4.000
944.251	-4.000
944.501	2.000
944.751	-3.000
945.000	0.000
945.250	-1.000
945.500	0.000
945.750	-3.000
946.000	-2.000
946.250	2.000
946.500	-7.000
946.750	-7.000
947.000	0.000
947.249	4.000
947.499	-2.000
947.749	-2.000
947.999	-2.000
948.249	-3.000
948.499	0.000
948.749	-2.000
948.998	2.000
949.248	1.000
949.498	0.000
949.748	1.000
949.997	-3.000
950.247	-1.000
950.497	-6.000
950.747	-3.000
950.997	-6.000
951.246	-2.000
951.496	-2.000
951.746	-3.000
951.995	-1.000
952.245	-1.000
952.495	-3.000
952.745	-2.000
952.994	-7.000
953.244	-6.000
953.494	-1.000
953.743	-5.000
953.993	-4.000
954.243	-7.000
954.492	-4.000
954.742	-2.000
954.992	-5.000
955.241	-1.000
955.491	-1.000
955.740	-2.000
955.990	-1.000
956.240	-5.000
956.489	-2.000
956.739	-1.000
956.988	-4.000
957.238	-5.000
957.488	0.000
957.737	0.000
957.987	-3.000
958.236	2.000
958.486	-5.000
958.735	-5.000
958.985	-3.000
959.234	-2.000
959.484	-6.000
959.733	-7.000
959.983	-3.000
960.232	-6.000
960.482	1.000
960.731	-3.000
960.981	-2.000
961.230	0.000
961.480	-3.000
961.729	1.000
961.978	-4.000
962.228	-4.000
962.477	-1.000
962.727	1.000
962.976	-1.000
963.226	-3.000
963.475	2.000
963.724	-2.000
963.974	-1.000
964.223	-5.000
964.472	-2.000
964.722	-1.000
964.971	-4.000
965.220	0.000
965.470	-2.000
965.719	-5.000
965.968	-2.000
966.218	-4.000
966.467	1.000
966.716	-1.000
966.966	0.000
967.215	-4.000
967.464	2.000
967.713	-3.000
967.963	-3.000
968.212	0.000
968.461	0.000
968.710	-3.000
968.960	-1.000
969.209	-1.000
969.458	-1.000
969.707	2.000
969.956	-4.000
970.206	-3.000
970.455	-3.000
970.704	-3.000
970.953	-2.000
971.202	0.000
971.451	-1.000
971.701	-1.000
971.950	0.000
972.199	3.000
972.448	-2.000
972.697	-1.000
972.946	4.000
973.195	-3.000
973.444	0.000
973.694	-4.000
973.943	-2.000
974.192	-4.000
974.441	-3.000
974.690	-1.000
974.939	-2.000
975.188	1.000
975.437	-2.000
975.686	-1.000
975.935	-5.000
976.184	-2.000
976.433	-1.000
976.682	0.000
976.931	-1.000
977.180	-6.000
977.429	2.000
977.678	-3.000
977.927	-1.000
978.176	-2.000
978.425	-8.000
978.674	-1.000
978.923	0.000
979.172	-1.000
979.421	-6.000
979.670	-4.000
979.918	-3.000
980.167	0.000
980.416	-2.000
980.665	-4.000
980.914	-5.000
981.163	-2.000
981.412	-1.000
981.661	-1.000
981.909	2.000
982.158	-4.000
982.407	-3.000
982.656	-3.000
982.905	0.000
983.154	-2.000
983.402	-1.000
983.651	1.000
983.900	-2.000
984.149	1.000
984.398	-2.000
984.646	-1.000
984.895	-3.000
985.144	-3.000
985.393	-1.000
985.641	0.000
985.890	-2.000
986.139	-3.000
986.387	1.000
986.636	2.000
986.885	-1.000
987.134	-4.000
987.382	-3.000
987.631	2.000
987.880	4.000
988.128	5.000
988.377	1.000
988.626	2.000
988.874	1.000
989.123	0.000
989.372	1.000
989.620	-4.000
989.869	1.000
990.117	-3.000
990.366	2.000
990.615	0.000
990.863	0.000
991.112	2.000
991.360	0.000
991.609	-4.000
991.857	-2.000
992.106	-2.000
992.355	2.000
992.603	-3.000
992.852	0.000
993.100	-4.000
993.349	-4.000
993.597	-2.000
993.846	0.000
994.094	-1.000
994.343	-2.000
994.591	-2.000
994.840	-3.000
995.088	-2.000
995.336	0.000
995.585	-1.000
995.833	2.000
996.082	0.000
996.330	-4.000
996.579	3.000
996.827	-4.000
997.075	-2.000
997.324	0.000
997.572	2.000
997.821	-1.000
998.069	-1.000
998.317	-3.000
998.566	0.000
998.814	-1.000
999.062	-1.000
999.311	2.000
999.559	-4.000
999.807	0.000
1000.056	-7.000
1000.304	0.000
1000.552	-4.000
1000.801	-4.000
1001.049	0.000
1001.297	-2.000
1001.546	2.000
1001.794	1.000
1002.042	1.000
1002.290	-2.000
1002.539	-1.000
1002.787	2.000
1003.035	-2.000
1003.283	-2.000
1003.531	4.000
1003.780	-3.000
1004.028	-1.000
1004.276	-3.000
1004.524	-4.000
1004.772	-3.000
1005.021	0.000
1005.269	0.000
1005.517	-2.000
1005.765	-3.000
1006.013	-4.000
1006.261	-5.000
1006.509	1.000
1006.758	2.000
1007.006	3.000
1007.254	-4.000
1007.502	2.000
1007.750	-3.000
1007.998	-2.000
1008.246	1.000
1008.494	-6.000
1008.742	-3.000
1008.990	4.000
1009.238	0.000
1009.486	-2.000
1009.735	-4.000
1009.983	-3.000
1010.231	0.000
1010.479	1.000
1010.727	2.000
1010.975	3.000
1011.223	0.000
1011.471	0.000
1011.719	1.000
1011.967	-3.000
1012.214	0.000
1012.462	-1.000
1012.710	1.000
1012.958	-2.000
1013.206	4.000
1013.454	0.000
1013.702	-1.000
1013.950	-1.000
1014.198	-2.000
1014.446	-3.000
1014.694	-1.000
1014.942	-1.000
1015.189	2.000
1015.437	1.000
1015.685	3.000
1015.933	-2.000
1016.181	0.000
1016.429	-1.000
1016.677	-1.000
1016.924	-3.000
1017.172	-1.000
1017.420	0.000
1017.668	-2.000
1017.916	-1.000
1018.163	0.000
1018.411	-2.000
1018.659	1.000
1018.907	-2.000
1019.155	0.000
1019.402	-1.000
1019.650	-1.000
1019.898	-6.000
1020.145	-5.000
1020.393	-2.000
1020.641	-2.000
1020.889	-2.000
1021.136	-1.000
1021.384	-2.000
1021.632	3.000
1021.879	1.000
1022.127	-2.000
1022.375	2.000
1022.622	0.000
1022.870	-4.000
1023.118	-1.000
1023.365	0.000
1023.613	-8.000
1023.861	-6.000
1024.108	-9.000
1024.356	0.000
1024.603	-5.000
1024.851	2.000
1025.099	-2.000
1025.346	-7.000
1025.594	-3.000
1025.841	1.000
1026.089	-4.000
1026.336	-5.000
1026.584	-2.000
1026.832	-1.000
1027.079	7.000
1027.327	0.000
1027.574	-2.000
1027.822	-3.000
1028.069	1.000
1028.317	-1.000
1028.564	0.000
1028.812	-1.000
1029.059	-5.000
1029.306	2.000
1029.554	4.000
1029.801	2.000
1030.049	0.000
1030.296	1.000
1030.544	-1.000
1030.791	2.000
1031.039	0.000
1031.286	1.000
1031.533	-1.000
1031.781	-1.000
1032.028	0.000
1032.276	-1.000
1032.523	0.000
1032.770	-3.000
1033.018	-3.000
1033.265	-2.000
1033.512	0.000
1033.760	1.000
1034.007	0.000
1034.254	4.000
1034.502	2.000
1034.749	-1.000
1034.996	1.000
1035.243	-2.000
1035.491	0.000
1035.738	3.000
1035.985	-3.000
1036.233	1.000
1036.480	-1.000
1036.727	-2.000
1036.974	-2.000
1037.222	-1.000
1037.469	-2.000
1037.716	0.000
1037.963	0.000
1038.210	-4.000
1038.458	-3.000
1038.705	0.000
1038.952	2.000
1039.199	-4.000
1039.446	-2.000
1039.693	0.000
1039.941	-7.000
1040.188	-3.000
1040.435	-2.000
1040.682	-3.000
1040.929	3.000
1041.176	1.000
1041.423	-1.000
1041.671	5.000
1041.918	0.000
1042.165	1.000
1042.412	2.000
1042.659	2.000
1042.906	4.000
1043.153	-2.000
1043.400	-3.000
1043.647	-4.000
1043.894	-3.000
1044.141	1.000
1044.388	-6.000
1044.635	-3.000
1044.882	-7.000
1045.129	-5.000
1045.376	-1.000
1045.623	-6.000
1045.870	-3.000
1046.117	0.000
1046.364	-3.000
1046.611	0.000
1046.858	-4.000
1047.105	-1.000
1047.352	-4.000
1047.599	-2.000
1047.846	-1.000
1048.093	-1.000
1048.340	-1.000
1048.587	-4.000
1048.833	-3.000
1049.080	-6.000
1049.327	-1.000
1049.574	0.000
1049.821	-3.000
1050.068	0.000
1050.315	-3.000
1050.561	-2.000
1050.808	-2.000
1051.055	-2.000
1051.302	1.000
1051.549	2.000
1051.796	-2.000
1052.042	-2.000
1052.289	3.000
1052.536	2.000
1052.783	1.000
1053.030	2.000
1053.276	-1.000
1053.523	0.000
1053.770	-1.000
1054.017	4.000
1054.263	1.000
1054.510	2.000
1054.757	-3.000
1055.003	0.000
1055.250	2.000
1055.497	-6.000
1055.744	-2.000
1055.990	-6.000
1056.237	-4.000
1056.484	3.000
1056.730	-2.000
1056.977	1.000
1057.224	1.000
1057.470	-4.000
1057.717	0.000
1057.963	1.000
1058.210	-4.000
1058.457	2.000
1058.703	-2.000
1058.950	3.000
1059.197	3.000
1059.443	-2.000
1059.690	2.000
1059.936	3.000
1060.183	0.000
1060.429	-2.000
1060.676	-3.000
1060.922	1.000
1061.169	-4.000
1061.416	0.000
1061.662	6.000
1061.909	0.000
1062.155	-4.000
1062.402	0.000
1062.648	1.000
1062.895	1.000
1063.141	-4.000
1063.387	-4.000
1063.634	0.000
1063.880	-3.000
1064.127	-4.000
1064.373	-5.000
1064.620	-3.000
1064.866	-1.000
1065.113	2.000
1065.359	-2.000
1065.605	-1.000
1065.852	3.000
1066.098	0.000
1066.345	-3.000
1066.591	-3.000
1066.837	2.000
1067.084	-3.000
1067.330	-3.000
1067.576	-5.000
1067.823	0.000
1068.069	-1.000
1068.315	0.000
1068.562	0.000
1068.808	1.000
1069.054	-1.000
1069.301	-2.000
1069.547	-4.000
1069.793	2.000
1070.040	-3.000
1070.286	2.000
1070.532	2.000
1070.778	-1.000
1071.025	-1.000
1071.271	-3.000
1071.517	-5.000
1071.763	0.000
1072.009	1.000
1072.256	-2.000
1072.502	2.000
1072.748	1.000
1072.994	0.000
1073.240	-2.000
1073.487	-2.000
1073.733	-4.000
1073.979	-1.000
1074.225	-5.000
1074.471	-1.000
1074.717	-2.000
1074.964	-2.000
1075.210	-2.000
1075.456	-2.000
1075.702	-1.000
1075.948	-4.000
1076.194	-2.000
1076.440	-4.000
1076.686	-1.000
1076.932	-2.000
1077.178	-4.000
1077.425	0.000
1077.671	1.000
1077.917	2.000
1078.163	-1.000
1078.409	-4.000
1078.655	2.000
1078.901	-3.000
1079.147	2.000
1079.393	-1.000
1079.639	-2.000
1079.885	0.000
1080.131	1.000
1080.377	-2.000
1080.623	1.000
1080.869	1.000
1081.115	-3.000
1081.361	0.000
1081.606	-2.000
1081.852	1.000
1082.098	1.000
1082.344	0.000
1082.590	0.000
1082.836	-4.000
1083.082	5.000
1083.328	5.000
1083.574	1.000
1083.820	0.000
1084.065	-3.000
1084.311	-1.000
1084.557	0.000
1084.803	2.000
1085.049	0.000
1085.295	-1.000
1085.541	-1.000
1085.786	-2.000
1086.032	-1.000
1086.278	1.000
1086.524	-5.000
1086.770	-3.000
1087.015	-3.000
1087.261	1.000
1087.507	-4.000
1087.753	-5.000
1087.998	-4.000
1088.244	-4.000
1088.490	-2.000
1088.736	1.000
1088.981	1.000
1089.227	0.000
1089.473	-5.000
1089.719	-3.000
1089.964	0.000
1090.210	-2.000
1090.456	0.000
1090.701	-1.000
1090.947	-1.000
1091.193	-6.000
1091.438	0.000
1091.684	4.000
1091.930	-2.000
1092.175	2.000
1092.421	-4.000
1092.666	-2.000
1092.912	1.000
1093.158	-2.000
1093.403	-5.000
1093.649	-1.000
1093.894	0.000
1094.140	-6.000
1094.386	0.000
1094.631	1.000
1094.877	-2.000
1095.122	3.000
1095.368	1.000
1095.613	-4.000
1095.859	1.000
1096.104	0.000
1096.350	2.000
1096.595	2.000
1096.841	-2.000
1097.086	-1.000
1097.332	-3.000
1097.577	-2.000
1097.823	0.000
1098.068	2.000
1098.314	3.000
1098.559	-1.000
1098.805	-2.000
1099.050	-1.000
1099.295	2.000
1099.541	-4.000
1099.786	2.000
+++++End Spectral Data+++++
