Spectrometer Data
EN
------------------------------
Saving Time:Wed, Jan 21, 2026 14:06:37
Device Name:Aurora 4000
Version Info:V9_84
Serial Number:220120190816098402001100
Integral Time(æs):5000
Avg Count:1
Smoothness:0
Data Type:(0 1)Wavelength-Delete Dark
X-Axis Unit:nm
Y-Axis Unit:counts
Pixel Count:3482
Reserve0:250
Other Description:
+++++Begin Spectral Data+++++
200.149	-2.000
200.421	-3.000
200.693	-4.000
200.966	1.000
201.238	-1.000
201.510	-3.000
201.782	-6.000
202.054	-6.000
202.326	-3.000
202.598	-3.000
202.870	-1.000
203.142	-2.000
203.414	-6.000
203.686	0.000
203.958	-2.000
204.230	1.000
204.502	-3.000
204.774	-5.000
205.046	1.000
205.318	-2.000
205.590	0.000
205.861	2.000
206.133	-7.000
206.405	-2.000
206.677	-4.000
206.949	-5.000
207.221	-4.000
207.493	-1.000
207.765	-2.000
208.037	-5.000
208.308	3.000
208.580	1.000
208.852	-2.000
209.124	-4.000
209.396	-2.000
209.668	-4.000
209.939	-2.000
210.211	2.000
210.483	-1.000
210.755	-4.000
211.027	-1.000
211.298	-1.000
211.570	-1.000
211.842	2.000
212.114	-2.000
212.385	-5.000
212.657	-1.000
212.929	-2.000
213.200	0.000
213.472	-2.000
213.744	-5.000
214.016	-1.000
214.287	-3.000
214.559	-1.000
214.831	-3.000
215.102	-4.000
215.374	0.000
215.645	1.000
215.917	3.000
216.189	0.000
216.460	-3.000
216.732	-3.000
217.004	-7.000
217.275	-5.000
217.547	-2.000
217.818	0.000
218.090	1.000
218.361	-2.000
218.633	-1.000
218.904	0.000
219.176	1.000
219.448	0.000
219.719	-2.000
219.991	-6.000
220.262	-3.000
220.534	-4.000
220.805	-3.000
221.076	-4.000
221.348	-3.000
221.619	1.000
221.891	-3.000
222.162	-2.000
222.434	-2.000
222.705	4.000
222.977	1.000
223.248	-4.000
223.519	-4.000
223.791	-1.000
224.062	-3.000
224.333	2.000
224.605	-2.000
224.876	1.000
225.148	-5.000
225.419	4.000
225.690	2.000
225.962	3.000
226.233	-2.000
226.504	-4.000
226.775	3.000
227.047	-4.000
227.318	-3.000
227.589	1.000
227.861	-1.000
228.132	-1.000
228.403	-4.000
228.674	-4.000
228.946	1.000
229.217	-2.000
229.488	-5.000
229.759	-2.000
230.030	-2.000
230.302	4.000
230.573	2.000
230.844	0.000
231.115	-3.000
231.386	3.000
231.657	3.000
231.929	-4.000
232.200	-1.000
232.471	-6.000
232.742	-4.000
233.013	-7.000
233.284	-3.000
233.555	-4.000
233.826	0.000
234.097	-4.000
234.369	-2.000
234.640	1.000
234.911	1.000
235.182	-3.000
235.453	-3.000
235.724	-4.000
235.995	-5.000
236.266	-1.000
236.537	0.000
236.808	-1.000
237.079	-7.000
237.350	-3.000
237.621	1.000
237.892	-1.000
238.163	0.000
238.434	-3.000
238.705	0.000
238.975	-5.000
239.246	-4.000
239.517	-2.000
239.788	-2.000
240.059	1.000
240.330	-6.000
240.601	-3.000
240.872	-2.000
241.143	2.000
241.413	1.000
241.684	4.000
241.955	-4.000
242.226	0.000
242.497	-2.000
242.768	1.000
243.038	-5.000
243.309	-3.000
243.580	3.000
243.851	0.000
244.122	-4.000
244.392	-4.000
244.663	1.000
244.934	0.000
245.205	1.000
245.475	0.000
245.746	4.000
246.017	-2.000
246.288	-2.000
246.558	-2.000
246.829	-3.000
247.100	-6.000
247.370	-3.000
247.641	-2.000
247.912	-3.000
248.182	-4.000
248.453	-2.000
248.724	2.000
248.994	-2.000
249.265	-2.000
249.535	-4.000
249.806	-2.000
250.077	-4.000
250.347	-2.000
250.618	1.000
250.888	-2.000
251.159	-2.000
251.430	-1.000
251.700	-2.000
251.971	-3.000
252.241	1.000
252.512	3.000
252.782	-2.000
253.053	-1.000
253.323	1.000
253.594	1.000
253.864	-7.000
254.135	-5.000
254.405	-5.000
254.676	-5.000
254.946	-3.000
255.216	-4.000
255.487	0.000
255.757	-2.000
256.028	-3.000
256.298	-4.000
256.569	-1.000
256.839	-6.000
257.109	-4.000
257.380	-1.000
257.650	-7.000
257.920	-7.000
258.191	-1.000
258.461	1.000
258.731	-3.000
259.002	-5.000
259.272	-4.000
259.542	-2.000
259.813	-1.000
260.083	-3.000
260.353	1.000
260.624	-7.000
260.894	-4.000
261.164	1.000
261.434	-5.000
261.705	0.000
261.975	-5.000
262.245	-4.000
262.515	-2.000
262.786	-1.000
263.056	3.000
263.326	2.000
263.596	3.000
263.866	1.000
264.137	-6.000
264.407	2.000
264.677	-1.000
264.947	-1.000
265.217	-1.000
265.487	-1.000
265.757	-1.000
266.027	-2.000
266.298	-5.000
266.568	-4.000
266.838	-4.000
267.108	-1.000
267.378	-6.000
267.648	-2.000
267.918	0.000
268.188	-1.000
268.458	-4.000
268.728	-2.000
268.998	-4.000
269.268	-4.000
269.538	0.000
269.808	-1.000
270.078	-2.000
270.348	-4.000
270.618	0.000
270.888	1.000
271.158	-4.000
271.428	0.000
271.698	-3.000
271.968	-1.000
272.238	-3.000
272.508	-4.000
272.778	-7.000
273.048	-3.000
273.318	-1.000
273.587	-3.000
273.857	-1.000
274.127	0.000
274.397	-1.000
274.667	-1.000
274.937	-3.000
275.207	1.000
275.476	-2.000
275.746	-3.000
276.016	-3.000
276.286	-1.000
276.556	-5.000
276.826	1.000
277.095	1.000
277.365	-5.000
277.635	-1.000
277.905	-4.000
278.174	-7.000
278.444	-5.000
278.714	-2.000
278.984	-7.000
279.253	-6.000
279.523	1.000
279.793	-4.000
280.062	-7.000
280.332	0.000
280.602	0.000
280.871	-4.000
281.141	-5.000
281.411	-3.000
281.680	-2.000
281.950	0.000
282.220	-10.000
282.489	-7.000
282.759	3.000
283.029	-2.000
283.298	-1.000
283.568	-2.000
283.837	-2.000
284.107	-2.000
284.376	1.000
284.646	-3.000
284.916	1.000
285.185	-2.000
285.455	-2.000
285.724	-3.000
285.994	-11.000
286.263	-1.000
286.533	-4.000
286.802	-2.000
287.072	-4.000
287.341	-2.000
287.611	-1.000
287.880	-2.000
288.149	-7.000
288.419	-2.000
288.688	-4.000
288.958	0.000
289.227	0.000
289.497	0.000
289.766	-3.000
290.035	-2.000
290.305	-2.000
290.574	-5.000
290.844	-9.000
291.113	-2.000
291.382	-3.000
291.652	-3.000
291.921	-4.000
292.190	-1.000
292.460	0.000
292.729	-1.000
292.998	-1.000
293.268	0.000
293.537	-4.000
293.806	1.000
294.075	-2.000
294.345	-3.000
294.614	-1.000
294.883	-6.000
295.152	-4.000
295.422	-3.000
295.691	-5.000
295.960	1.000
296.229	-6.000
296.498	-3.000
296.768	-1.000
297.037	-5.000
297.306	-5.000
297.575	-6.000
297.844	3.000
298.114	-1.000
298.383	-7.000
298.652	-9.000
298.921	0.000
299.190	-4.000
299.459	-4.000
299.728	0.000
299.997	-3.000
300.266	2.000
300.536	-3.000
300.805	-2.000
301.074	-2.000
301.343	-5.000
301.612	0.000
301.881	-3.000
302.150	1.000
302.419	-6.000
302.688	-1.000
302.957	-4.000
303.226	-3.000
303.495	-4.000
303.764	-1.000
304.033	2.000
304.302	-3.000
304.571	-4.000
304.840	0.000
305.109	-6.000
305.378	-4.000
305.646	-2.000
305.915	-3.000
306.184	-2.000
306.453	0.000
306.722	-1.000
306.991	2.000
307.260	-5.000
307.529	-1.000
307.798	-5.000
308.066	-1.000
308.335	-3.000
308.604	1.000
308.873	0.000
309.142	-4.000
309.411	-7.000
309.679	-1.000
309.948	-1.000
310.217	-1.000
310.486	-4.000
310.755	-5.000
311.023	-1.000
311.292	-4.000
311.561	-1.000
311.830	-2.000
312.098	-2.000
312.367	-3.000
312.636	-2.000
312.904	-5.000
313.173	1.000
313.442	-3.000
313.711	-5.000
313.979	-2.000
314.248	-6.000
314.517	-2.000
314.785	-2.000
315.054	-2.000
315.322	-2.000
315.591	-3.000
315.860	-4.000
316.128	-5.000
316.397	-3.000
316.665	-9.000
316.934	-1.000
317.203	-5.000
317.471	1.000
317.740	-5.000
318.008	-7.000
318.277	-4.000
318.545	-6.000
318.814	-6.000
319.082	-6.000
319.351	-3.000
319.619	-3.000
319.888	-4.000
320.156	-4.000
320.425	-2.000
320.693	-3.000
320.962	-4.000
321.230	-3.000
321.499	-6.000
321.767	-3.000
322.036	-1.000
322.304	-3.000
322.573	-3.000
322.841	-2.000
323.109	-3.000
323.378	1.000
323.646	0.000
323.914	-2.000
324.183	-1.000
324.451	-4.000
324.720	-4.000
324.988	-5.000
325.256	-2.000
325.525	0.000
325.793	-1.000
326.061	-1.000
326.330	0.000
326.598	-4.000
326.866	0.000
327.134	1.000
327.403	-6.000
327.671	-3.000
327.939	-1.000
328.207	-5.000
328.476	-2.000
328.744	-5.000
329.012	0.000
329.280	-3.000
329.549	1.000
329.817	-4.000
330.085	-2.000
330.353	-1.000
330.621	0.000
330.889	-3.000
331.158	-2.000
331.426	-3.000
331.694	-7.000
331.962	-5.000
332.230	-4.000
332.498	-5.000
332.766	2.000
333.035	-4.000
333.303	-2.000
333.571	0.000
333.839	0.000
334.107	-2.000
334.375	0.000
334.643	-3.000
334.911	0.000
335.179	2.000
335.447	-2.000
335.715	-7.000
335.983	-5.000
336.251	-6.000
336.519	-8.000
336.787	0.000
337.055	-4.000
337.323	-4.000
337.591	-2.000
337.859	-2.000
338.127	-6.000
338.395	1.000
338.663	-5.000
338.931	-5.000
339.199	-1.000
339.467	-8.000
339.734	-3.000
340.002	-4.000
340.270	-2.000
340.538	-1.000
340.806	-2.000
341.074	-1.000
341.342	-5.000
341.610	-1.000
341.877	-3.000
342.145	-4.000
342.413	-1.000
342.681	-2.000
342.949	-1.000
343.216	-4.000
343.484	-4.000
343.752	-1.000
344.020	-2.000
344.288	-1.000
344.555	-4.000
344.823	-6.000
345.091	-3.000
345.359	-3.000
345.626	-3.000
345.894	-1.000
346.162	-3.000
346.429	-6.000
346.697	-2.000
346.965	0.000
347.232	-2.000
347.500	-2.000
347.768	2.000
348.035	1.000
348.303	-4.000
348.571	2.000
348.838	4.000
349.106	-4.000
349.374	2.000
349.641	-3.000
349.909	-3.000
350.176	-3.000
350.444	-3.000
350.712	-2.000
350.979	-5.000
351.247	2.000
351.514	0.000
351.782	0.000
352.049	-2.000
352.317	1.000
352.584	-7.000
352.852	-5.000
353.119	-5.000
353.387	0.000
353.654	-5.000
353.922	-6.000
354.189	-3.000
354.457	-6.000
354.724	-2.000
354.992	-2.000
355.259	-7.000
355.526	-5.000
355.794	-4.000
356.061	-1.000
356.329	-8.000
356.596	-6.000
356.863	-7.000
357.131	-2.000
357.398	-9.000
357.666	-3.000
357.933	-3.000
358.200	-5.000
358.468	-4.000
358.735	-3.000
359.002	-2.000
359.270	-3.000
359.537	-2.000
359.804	0.000
360.071	-1.000
360.339	-2.000
360.606	1.000
360.873	-1.000
361.141	-2.000
361.408	-9.000
361.675	-1.000
361.942	-7.000
362.210	-1.000
362.477	-2.000
362.744	-3.000
363.011	-4.000
363.278	-6.000
363.546	-6.000
363.813	-3.000
364.080	-5.000
364.347	-2.000
364.614	-2.000
364.881	0.000
365.148	2.000
365.416	1.000
365.683	-2.000
365.950	-1.000
366.217	-4.000
366.484	-3.000
366.751	-1.000
367.018	1.000
367.285	1.000
367.552	-1.000
367.819	2.000
368.086	-7.000
368.354	-1.000
368.621	-4.000
368.888	-1.000
369.155	-3.000
369.422	0.000
369.689	-2.000
369.956	-3.000
370.223	-4.000
370.490	-1.000
370.757	-3.000
371.024	-2.000
371.290	-4.000
371.557	0.000
371.824	-1.000
372.091	-4.000
372.358	0.000
372.625	3.000
372.892	-4.000
373.159	-1.000
373.426	-3.000
373.693	0.000
373.960	0.000
374.226	-1.000
374.493	-2.000
374.760	-5.000
375.027	-3.000
375.294	-6.000
375.561	-3.000
375.827	-8.000
376.094	0.000
376.361	-4.000
376.628	-4.000
376.895	-2.000
377.161	1.000
377.428	-3.000
377.695	-1.000
377.962	-1.000
378.228	3.000
378.495	-3.000
378.762	-3.000
379.029	-7.000
379.295	1.000
379.562	-3.000
379.829	-1.000
380.095	0.000
380.362	1.000
380.629	-2.000
380.896	-2.000
381.162	1.000
381.429	-2.000
381.695	-1.000
381.962	-4.000
382.229	-8.000
382.495	-4.000
382.762	0.000
383.029	1.000
383.295	-4.000
383.562	-5.000
383.828	-3.000
384.095	-4.000
384.361	-6.000
384.628	-5.000
384.895	-4.000
385.161	-2.000
385.428	-4.000
385.694	-1.000
385.961	-2.000
386.227	-3.000
386.494	-2.000
386.760	5.000
387.027	0.000
387.293	-4.000
387.560	3.000
387.826	20.000
388.092	43.000
388.359	105.000
388.625	211.000
388.892	244.000
389.158	157.000
389.425	55.000
389.691	15.000
389.957	-4.000
390.224	-5.000
390.490	-1.000
390.757	-4.000
391.023	-6.000
391.289	-6.000
391.556	1.000
391.822	-3.000
392.088	-3.000
392.355	-4.000
392.621	-2.000
392.887	-1.000
393.154	1.000
393.420	2.000
393.686	-1.000
393.952	-2.000
394.219	-4.000
394.485	1.000
394.751	-1.000
395.017	1.000
395.284	2.000
395.550	-2.000
395.816	-2.000
396.082	-3.000
396.349	-3.000
396.615	-3.000
396.881	-6.000
397.147	-9.000
397.413	-4.000
397.679	-2.000
397.946	-5.000
398.212	1.000
398.478	-1.000
398.744	-2.000
399.010	-2.000
399.276	-2.000
399.542	-5.000
399.808	-3.000
400.075	-3.000
400.341	-1.000
400.607	-3.000
400.873	0.000
401.139	0.000
401.405	-5.000
401.671	-3.000
401.937	-2.000
402.203	-2.000
402.469	0.000
402.735	-3.000
403.001	-4.000
403.267	-8.000
403.533	0.000
403.799	-3.000
404.065	1.000
404.331	1.000
404.597	-4.000
404.863	-5.000
405.129	-4.000
405.395	-3.000
405.661	-1.000
405.927	2.000
406.192	-2.000
406.458	-1.000
406.724	-3.000
406.990	2.000
407.256	-3.000
407.522	-3.000
407.788	-1.000
408.054	-5.000
408.319	-2.000
408.585	-2.000
408.851	2.000
409.117	-4.000
409.383	-6.000
409.649	-1.000
409.914	-2.000
410.180	-2.000
410.446	-1.000
410.712	0.000
410.977	1.000
411.243	2.000
411.509	2.000
411.775	3.000
412.040	-2.000
412.306	0.000
412.572	3.000
412.838	-3.000
413.103	-3.000
413.369	-2.000
413.635	-3.000
413.900	-3.000
414.166	1.000
414.432	-3.000
414.697	-3.000
414.963	-5.000
415.229	1.000
415.494	-2.000
415.760	-3.000
416.025	-5.000
416.291	-1.000
416.557	-1.000
416.822	-2.000
417.088	1.000
417.353	1.000
417.619	-2.000
417.884	-3.000
418.150	-1.000
418.416	1.000
418.681	0.000
418.947	-3.000
419.212	-2.000
419.478	-4.000
419.743	-2.000
420.009	-4.000
420.274	-3.000
420.540	-1.000
420.805	-4.000
421.071	-1.000
421.336	4.000
421.601	0.000
421.867	-1.000
422.132	-6.000
422.398	-1.000
422.663	-3.000
422.929	-2.000
423.194	-2.000
423.459	-3.000
423.725	-5.000
423.990	-4.000
424.256	-6.000
424.521	-4.000
424.786	-5.000
425.052	1.000
425.317	-4.000
425.582	-2.000
425.848	-3.000
426.113	-6.000
426.378	-6.000
426.643	2.000
426.909	-4.000
427.174	-2.000
427.439	-2.000
427.705	-3.000
427.970	-4.000
428.235	-6.000
428.500	-5.000
428.766	-3.000
429.031	-5.000
429.296	-5.000
429.561	-6.000
429.826	-5.000
430.092	-5.000
430.357	-2.000
430.622	-1.000
430.887	-5.000
431.152	-5.000
431.417	-3.000
431.683	-1.000
431.948	-2.000
432.213	-1.000
432.478	4.000
432.743	-2.000
433.008	0.000
433.273	-2.000
433.538	-3.000
433.803	0.000
434.069	-2.000
434.334	-5.000
434.599	-5.000
434.864	-3.000
435.129	-8.000
435.394	-4.000
435.659	0.000
435.924	2.000
436.189	1.000
436.454	-5.000
436.719	-3.000
436.984	0.000
437.249	0.000
437.514	-2.000
437.779	-4.000
438.044	-6.000
438.309	-9.000
438.574	-3.000
438.838	-2.000
439.103	-3.000
439.368	-2.000
439.633	-3.000
439.898	-2.000
440.163	-2.000
440.428	-2.000
440.693	-2.000
440.958	-4.000
441.222	-5.000
441.487	-1.000
441.752	-2.000
442.017	-7.000
442.282	-5.000
442.547	-7.000
442.811	-8.000
443.076	-4.000
443.341	-5.000
443.606	-3.000
443.871	-6.000
444.135	-7.000
444.400	-6.000
444.665	-8.000
444.930	-4.000
445.194	-2.000
445.459	-6.000
445.724	-7.000
445.989	-7.000
446.253	-6.000
446.518	-4.000
446.783	29.000
447.047	57.000
447.312	61.000
447.577	18.000
447.841	-4.000
448.106	-8.000
448.371	-7.000
448.635	-6.000
448.900	-9.000
449.165	-3.000
449.429	-2.000
449.694	-5.000
449.958	-2.000
450.223	-5.000
450.488	-1.000
450.752	-1.000
451.017	-5.000
451.281	-4.000
451.546	1.000
451.810	-2.000
452.075	-2.000
452.339	0.000
452.604	2.000
452.868	3.000
453.133	-4.000
453.397	-1.000
453.662	-5.000
453.926	-5.000
454.191	2.000
454.455	-2.000
454.720	-3.000
454.984	-2.000
455.249	2.000
455.513	-2.000
455.778	-1.000
456.042	0.000
456.306	-6.000
456.571	-2.000
456.835	-1.000
457.100	-2.000
457.364	-4.000
457.628	-2.000
457.893	1.000
458.157	-2.000
458.421	-4.000
458.686	-3.000
458.950	-2.000
459.214	-4.000
459.479	-1.000
459.743	-1.000
460.007	-5.000
460.272	-5.000
460.536	-5.000
460.800	0.000
461.064	-4.000
461.329	-2.000
461.593	0.000
461.857	-5.000
462.121	-2.000
462.386	-3.000
462.650	-4.000
462.914	-6.000
463.178	-5.000
463.442	-1.000
463.707	-4.000
463.971	-5.000
464.235	-2.000
464.499	-4.000
464.763	-4.000
465.027	-4.000
465.292	-5.000
465.556	-3.000
465.820	-5.000
466.084	-3.000
466.348	-1.000
466.612	0.000
466.876	-6.000
467.140	0.000
467.404	1.000
467.668	-6.000
467.933	-7.000
468.197	-2.000
468.461	0.000
468.725	-1.000
468.989	-2.000
469.253	-1.000
469.517	-4.000
469.781	-4.000
470.045	-7.000
470.309	-8.000
470.573	-4.000
470.837	-9.000
471.101	-3.000
471.365	-2.000
471.629	-10.000
471.892	-5.000
472.156	1.000
472.420	0.000
472.684	-8.000
472.948	-9.000
473.212	-5.000
473.476	-3.000
473.740	-6.000
474.004	1.000
474.268	-2.000
474.531	-2.000
474.795	-4.000
475.059	-5.000
475.323	0.000
475.587	2.000
475.851	1.000
476.114	-1.000
476.378	-7.000
476.642	-6.000
476.906	-3.000
477.170	-2.000
477.433	-4.000
477.697	-4.000
477.961	-4.000
478.225	-1.000
478.488	-4.000
478.752	0.000
479.016	-6.000
479.280	-4.000
479.543	-3.000
479.807	-4.000
480.071	-5.000
480.334	-5.000
480.598	-4.000
480.862	-1.000
481.125	-5.000
481.389	-5.000
481.653	5.000
481.916	6.000
482.180	-2.000
482.444	-2.000
482.707	-6.000
482.971	-3.000
483.234	-5.000
483.498	-6.000
483.762	-7.000
484.025	-2.000
484.289	-2.000
484.552	-3.000
484.816	-4.000
485.079	-2.000
485.343	-4.000
485.607	0.000
485.870	0.000
486.134	1.000
486.397	-1.000
486.661	3.000
486.924	-1.000
487.188	2.000
487.451	-3.000
487.715	-1.000
487.978	-7.000
488.241	-5.000
488.505	-5.000
488.768	-5.000
489.032	-2.000
489.295	-4.000
489.559	-3.000
489.822	-3.000
490.085	-2.000
490.349	-2.000
490.612	-2.000
490.876	-3.000
491.139	-4.000
491.402	-7.000
491.666	-7.000
491.929	-11.000
492.192	11.000
492.456	6.000
492.719	-5.000
492.982	0.000
493.246	-5.000
493.509	-4.000
493.772	-2.000
494.035	-1.000
494.299	-6.000
494.562	-4.000
494.825	0.000
495.088	-3.000
495.352	-3.000
495.615	-1.000
495.878	0.000
496.141	0.000
496.405	-2.000
496.668	-1.000
496.931	-5.000
497.194	-2.000
497.457	2.000
497.721	0.000
497.984	-4.000
498.247	-1.000
498.510	-1.000
498.773	-6.000
499.036	-4.000
499.299	-1.000
499.562	-5.000
499.826	-5.000
500.089	-3.000
500.352	-9.000
500.615	-4.000
500.878	5.000
501.141	33.000
501.404	73.000
501.667	80.000
501.930	38.000
502.193	4.000
502.456	-5.000
502.719	-7.000
502.982	-1.000
503.245	-4.000
503.508	-3.000
503.771	2.000
504.034	-2.000
504.297	-3.000
504.560	-5.000
504.823	-4.000
505.086	-5.000
505.349	0.000
505.612	-2.000
505.875	-4.000
506.138	-3.000
506.401	-1.000
506.664	-4.000
506.927	4.000
507.189	-3.000
507.452	-1.000
507.715	-4.000
507.978	-5.000
508.241	1.000
508.504	-4.000
508.767	-2.000
509.029	-1.000
509.292	-8.000
509.555	-4.000
509.818	-2.000
510.081	-1.000
510.343	-1.000
510.606	-4.000
510.869	-1.000
511.132	0.000
511.395	-1.000
511.657	-1.000
511.920	-2.000
512.183	-1.000
512.446	0.000
512.708	-1.000
512.971	1.000
513.234	1.000
513.496	-2.000
513.759	-2.000
514.022	0.000
514.284	-2.000
514.547	-3.000
514.810	1.000
515.072	0.000
515.335	-6.000
515.598	-4.000
515.860	-7.000
516.123	2.000
516.386	-3.000
516.648	1.000
516.911	-5.000
517.173	-2.000
517.436	-2.000
517.698	1.000
517.961	-4.000
518.224	4.000
518.486	-2.000
518.749	-3.000
519.011	-1.000
519.274	-1.000
519.536	2.000
519.799	-2.000
520.061	-1.000
520.324	5.000
520.586	3.000
520.849	-2.000
521.111	-1.000
521.374	-7.000
521.636	0.000
521.899	-2.000
522.161	-2.000
522.423	-2.000
522.686	-1.000
522.948	-6.000
523.211	-1.000
523.473	2.000
523.736	-8.000
523.998	1.000
524.260	-2.000
524.523	-7.000
524.785	-3.000
525.047	-2.000
525.310	-6.000
525.572	-4.000
525.834	2.000
526.097	-3.000
526.359	-1.000
526.621	-4.000
526.884	1.000
527.146	-4.000
527.408	-4.000
527.670	0.000
527.933	4.000
528.195	3.000
528.457	2.000
528.719	-1.000
528.982	-4.000
529.244	-2.000
529.506	3.000
529.768	1.000
530.031	-3.000
530.293	0.000
530.555	-4.000
530.817	0.000
531.079	-2.000
531.342	2.000
531.604	0.000
531.866	1.000
532.128	-1.000
532.390	2.000
532.652	-1.000
532.914	-2.000
533.176	1.000
533.439	-4.000
533.701	-5.000
533.963	0.000
534.225	0.000
534.487	-1.000
534.749	0.000
535.011	-1.000
535.273	2.000
535.535	0.000
535.797	-2.000
536.059	-2.000
536.321	-2.000
536.583	0.000
536.845	-4.000
537.107	-1.000
537.369	-2.000
537.631	-2.000
537.893	-6.000
538.155	0.000
538.417	0.000
538.679	-4.000
538.941	-1.000
539.203	0.000
539.465	-3.000
539.727	2.000
539.989	2.000
540.251	-1.000
540.512	-1.000
540.774	-2.000
541.036	-4.000
541.298	-7.000
541.560	-4.000
541.822	-3.000
542.084	-3.000
542.345	-3.000
542.607	0.000
542.869	1.000
543.131	4.000
543.393	-2.000
543.655	-4.000
543.916	-4.000
544.178	1.000
544.440	-1.000
544.702	-1.000
544.963	-5.000
545.225	-3.000
545.487	-6.000
545.749	-5.000
546.010	-4.000
546.272	0.000
546.534	0.000
546.795	1.000
547.057	-4.000
547.319	1.000
547.581	-1.000
547.842	1.000
548.104	-2.000
548.366	0.000
548.627	-1.000
548.889	-1.000
549.150	-1.000
549.412	4.000
549.674	2.000
549.935	-4.000
550.197	-4.000
550.459	-5.000
550.720	-4.000
550.982	1.000
551.243	-3.000
551.505	-1.000
551.766	0.000
552.028	0.000
552.289	-2.000
552.551	1.000
552.813	-6.000
553.074	-4.000
553.336	-1.000
553.597	0.000
553.859	-5.000
554.120	0.000
554.382	-2.000
554.643	-2.000
554.904	2.000
555.166	0.000
555.427	1.000
555.689	-4.000
555.950	-4.000
556.212	-1.000
556.473	-1.000
556.735	-2.000
556.996	-6.000
557.257	-9.000
557.519	-1.000
557.780	-4.000
558.041	-3.000
558.303	-2.000
558.564	-2.000
558.826	-4.000
559.087	-1.000
559.348	-2.000
559.609	-4.000
559.871	-1.000
560.132	-3.000
560.393	-2.000
560.655	-2.000
560.916	1.000
561.177	-4.000
561.439	-6.000
561.700	-3.000
561.961	-4.000
562.222	-6.000
562.484	-1.000
562.745	3.000
563.006	-2.000
563.267	2.000
563.528	-1.000
563.790	1.000
564.051	-4.000
564.312	-2.000
564.573	-1.000
564.834	-6.000
565.095	-1.000
565.357	-3.000
565.618	-5.000
565.879	-5.000
566.140	-2.000
566.401	-2.000
566.662	0.000
566.923	0.000
567.184	-2.000
567.446	-4.000
567.707	-4.000
567.968	-4.000
568.229	-7.000
568.490	-6.000
568.751	-2.000
569.012	0.000
569.273	-3.000
569.534	-1.000
569.795	-1.000
570.056	1.000
570.317	-5.000
570.578	-2.000
570.839	-4.000
571.100	0.000
571.361	-1.000
571.622	-3.000
571.883	-5.000
572.144	0.000
572.405	-6.000
572.666	-2.000
572.927	-5.000
573.188	-4.000
573.449	-6.000
573.709	-3.000
573.970	-6.000
574.231	-2.000
574.492	-2.000
574.753	-8.000
575.014	-2.000
575.275	-1.000
575.536	-2.000
575.796	-3.000
576.057	0.000
576.318	-2.000
576.579	-2.000
576.840	-4.000
577.100	-4.000
577.361	1.000
577.622	-4.000
577.883	-8.000
578.144	-3.000
578.404	-6.000
578.665	-3.000
578.926	-1.000
579.187	-4.000
579.447	-6.000
579.708	-2.000
579.969	-5.000
580.229	-4.000
580.490	1.000
580.751	-5.000
581.012	-4.000
581.272	-6.000
581.533	0.000
581.794	-6.000
582.054	-5.000
582.315	-6.000
582.576	0.000
582.836	-8.000
583.097	-4.000
583.357	-10.000
583.618	-4.000
583.879	-3.000
584.139	-5.000
584.400	-7.000
584.660	-2.000
584.921	-8.000
585.181	-6.000
585.442	-4.000
585.703	-2.000
585.963	45.000
586.224	117.000
586.484	252.000
586.745	478.000
587.005	861.000
587.266	1597.000
587.526	1978.000
587.787	1425.000
588.047	710.000
588.308	318.000
588.568	127.000
588.829	46.000
589.089	6.000
589.349	2.000
589.610	-3.000
589.870	-4.000
590.131	-2.000
590.391	-3.000
590.651	-2.000
590.912	-1.000
591.172	-4.000
591.433	-1.000
591.693	-1.000
591.953	-3.000
592.214	-3.000
592.474	-4.000
592.734	-3.000
592.995	-5.000
593.255	1.000
593.515	-3.000
593.776	-4.000
594.036	-3.000
594.296	-3.000
594.557	-5.000
594.817	-3.000
595.077	1.000
595.337	-3.000
595.598	-3.000
595.858	1.000
596.118	3.000
596.378	0.000
596.639	1.000
596.899	-2.000
597.159	-10.000
597.419	0.000
597.679	2.000
597.939	-3.000
598.200	-6.000
598.460	-8.000
598.720	-5.000
598.980	-5.000
599.240	-4.000
599.500	-7.000
599.761	-4.000
600.021	-4.000
600.281	0.000
600.541	-5.000
600.801	-1.000
601.061	-1.000
601.321	-1.000
601.581	1.000
601.841	-1.000
602.101	-2.000
602.361	2.000
602.621	-3.000
602.881	-3.000
603.142	-3.000
603.402	-3.000
603.662	-4.000
603.922	2.000
604.182	-1.000
604.442	-2.000
604.702	-3.000
604.961	-1.000
605.221	-6.000
605.481	-1.000
605.741	-1.000
606.001	-2.000
606.261	3.000
606.521	-4.000
606.781	0.000
607.041	-4.000
607.301	0.000
607.561	-8.000
607.821	-3.000
608.081	4.000
608.340	-3.000
608.600	-5.000
608.860	-2.000
609.120	-3.000
609.380	2.000
609.640	-6.000
609.899	-2.000
610.159	-4.000
610.419	0.000
610.679	0.000
610.939	-6.000
611.199	-1.000
611.458	-1.000
611.718	-2.000
611.978	-3.000
612.238	-1.000
612.497	-5.000
612.757	1.000
613.017	-2.000
613.277	-2.000
613.536	3.000
613.796	1.000
614.056	-1.000
614.315	-2.000
614.575	0.000
614.835	-1.000
615.094	-6.000
615.354	-2.000
615.614	-4.000
615.873	-3.000
616.133	-2.000
616.393	-4.000
616.652	-3.000
616.912	-3.000
617.171	-2.000
617.431	-2.000
617.691	0.000
617.950	2.000
618.210	-2.000
618.469	-4.000
618.729	-3.000
618.989	-4.000
619.248	-1.000
619.508	-7.000
619.767	-3.000
620.027	-6.000
620.286	-2.000
620.546	3.000
620.805	1.000
621.065	-1.000
621.324	-3.000
621.584	-6.000
621.843	-3.000
622.103	-2.000
622.362	-1.000
622.622	-6.000
622.881	-3.000
623.140	-5.000
623.400	-5.000
623.659	-1.000
623.919	-5.000
624.178	-3.000
624.437	-3.000
624.697	2.000
624.956	-2.000
625.216	-2.000
625.475	1.000
625.734	-1.000
625.994	-2.000
626.253	0.000
626.512	-3.000
626.772	0.000
627.031	-3.000
627.290	1.000
627.550	-7.000
627.809	-3.000
628.068	1.000
628.327	-1.000
628.587	-4.000
628.846	-1.000
629.105	-2.000
629.364	0.000
629.624	-3.000
629.883	-4.000
630.142	-1.000
630.401	0.000
630.661	-2.000
630.920	1.000
631.179	-2.000
631.438	1.000
631.697	-1.000
631.957	-1.000
632.216	-1.000
632.475	-3.000
632.734	-1.000
632.993	-4.000
633.252	-3.000
633.511	-4.000
633.770	-3.000
634.030	-1.000
634.289	-3.000
634.548	0.000
634.807	-2.000
635.066	1.000
635.325	-2.000
635.584	1.000
635.843	-4.000
636.102	0.000
636.361	-2.000
636.620	-3.000
636.879	-6.000
637.138	-3.000
637.397	-1.000
637.656	0.000
637.915	-1.000
638.174	-3.000
638.433	-4.000
638.692	-1.000
638.951	0.000
639.210	-4.000
639.469	-5.000
639.728	0.000
639.987	-6.000
640.246	-2.000
640.505	-3.000
640.764	0.000
641.023	0.000
641.282	-8.000
641.540	-3.000
641.799	-3.000
642.058	-5.000
642.317	0.000
642.576	-4.000
642.835	-2.000
643.094	-2.000
643.352	-5.000
643.611	-4.000
643.870	-7.000
644.129	-7.000
644.388	-4.000
644.646	-2.000
644.905	-3.000
645.164	-2.000
645.423	0.000
645.682	-4.000
645.940	-5.000
646.199	-2.000
646.458	-4.000
646.716	-4.000
646.975	-4.000
647.234	-3.000
647.493	-3.000
647.751	-2.000
648.010	-3.000
648.269	-2.000
648.527	-6.000
648.786	-5.000
649.045	-1.000
649.303	-8.000
649.562	-4.000
649.821	-3.000
650.079	-2.000
650.338	-2.000
650.597	3.000
650.855	-2.000
651.114	-5.000
651.372	-2.000
651.631	0.000
651.890	-4.000
652.148	-4.000
652.407	-3.000
652.665	-2.000
652.924	0.000
653.182	-5.000
653.441	-3.000
653.699	-1.000
653.958	-8.000
654.216	-4.000
654.475	-1.000
654.733	-1.000
654.992	2.000
655.250	-3.000
655.509	0.000
655.767	-2.000
656.026	-5.000
656.284	-2.000
656.543	-3.000
656.801	3.000
657.059	-3.000
657.318	-5.000
657.576	-2.000
657.835	0.000
658.093	-1.000
658.351	2.000
658.610	-1.000
658.868	-7.000
659.127	-1.000
659.385	0.000
659.643	-6.000
659.902	-4.000
660.160	0.000
660.418	0.000
660.677	-2.000
660.935	-5.000
661.193	-5.000
661.452	-3.000
661.710	-3.000
661.968	-1.000
662.226	2.000
662.485	-2.000
662.743	-3.000
663.001	-3.000
663.259	-2.000
663.518	-2.000
663.776	-3.000
664.034	-3.000
664.292	-7.000
664.550	-4.000
664.809	-6.000
665.067	-3.000
665.325	-7.000
665.583	-4.000
665.841	-3.000
666.099	-6.000
666.358	-6.000
666.616	-7.000
666.874	-2.000
667.132	75.000
667.390	215.000
667.648	420.000
667.906	445.000
668.164	285.000
668.423	132.000
668.681	49.000
668.939	6.000
669.197	-10.000
669.455	-7.000
669.713	-8.000
669.971	-5.000
670.229	1.000
670.487	0.000
670.745	-4.000
671.003	0.000
671.261	-11.000
671.519	-7.000
671.777	-8.000
672.035	-4.000
672.293	0.000
672.551	-2.000
672.809	-2.000
673.067	-2.000
673.325	-7.000
673.583	-5.000
673.841	-6.000
674.099	-5.000
674.356	0.000
674.614	-3.000
674.872	0.000
675.130	-2.000
675.388	-3.000
675.646	0.000
675.904	-4.000
676.162	-6.000
676.419	-3.000
676.677	-2.000
676.935	-2.000
677.193	-3.000
677.451	0.000
677.709	-3.000
677.966	-1.000
678.224	-3.000
678.482	-1.000
678.740	-2.000
678.998	-4.000
679.255	-8.000
679.513	-6.000
679.771	-8.000
680.029	-1.000
680.286	-5.000
680.544	-6.000
680.802	0.000
681.059	-5.000
681.317	-4.000
681.575	2.000
681.833	-3.000
682.090	-4.000
682.348	-6.000
682.606	-4.000
682.863	-1.000
683.121	2.000
683.379	-2.000
683.636	-4.000
683.894	-8.000
684.151	-4.000
684.409	-4.000
684.667	-6.000
684.924	-6.000
685.182	-1.000
685.439	-1.000
685.697	-4.000
685.955	-2.000
686.212	-6.000
686.470	-6.000
686.727	-4.000
686.985	-5.000
687.242	-5.000
687.500	-1.000
687.757	-2.000
688.015	-8.000
688.272	-1.000
688.530	-5.000
688.787	-4.000
689.045	-10.000
689.302	-8.000
689.560	-3.000
689.817	-4.000
690.075	-3.000
690.332	0.000
690.589	-4.000
690.847	-7.000
691.104	-3.000
691.362	-7.000
691.619	-5.000
691.876	-1.000
692.134	-4.000
692.391	-2.000
692.649	-2.000
692.906	-4.000
693.163	0.000
693.421	-7.000
693.678	-4.000
693.935	-4.000
694.193	-2.000
694.450	-4.000
694.707	-4.000
694.965	-3.000
695.222	-7.000
695.479	-3.000
695.736	-3.000
695.994	-4.000
696.251	-1.000
696.508	-10.000
696.765	-10.000
697.023	-4.000
697.280	-7.000
697.537	-7.000
697.794	-3.000
698.052	-5.000
698.309	1.000
698.566	-3.000
698.823	-2.000
699.080	-4.000
699.338	-6.000
699.595	-4.000
699.852	-5.000
700.109	-6.000
700.366	-3.000
700.623	-2.000
700.880	-4.000
701.137	-4.000
701.395	-9.000
701.652	-6.000
701.909	-5.000
702.166	-2.000
702.423	-2.000
702.680	-6.000
702.937	-3.000
703.194	-3.000
703.451	-1.000
703.708	-8.000
703.965	-9.000
704.222	-6.000
704.479	-11.000
704.736	-8.000
704.993	-12.000
705.250	-5.000
705.507	-4.000
705.764	83.000
706.021	238.000
706.278	606.000
706.535	903.000
706.792	755.000
707.049	424.000
707.306	210.000
707.563	87.000
707.820	31.000
708.077	2.000
708.334	-8.000
708.591	-3.000
708.847	-6.000
709.104	-3.000
709.361	-4.000
709.618	-6.000
709.875	-8.000
710.132	-6.000
710.389	-2.000
710.645	-2.000
710.902	-5.000
711.159	3.000
711.416	-4.000
711.673	-3.000
711.930	-3.000
712.186	0.000
712.443	-3.000
712.700	-1.000
712.957	-4.000
713.213	-10.000
713.470	-5.000
713.727	-7.000
713.984	-7.000
714.240	-1.000
714.497	-5.000
714.754	-4.000
715.011	-1.000
715.267	-3.000
715.524	-2.000
715.781	-3.000
716.037	-4.000
716.294	-5.000
716.551	-5.000
716.807	-2.000
717.064	0.000
717.321	-3.000
717.577	-2.000
717.834	-1.000
718.090	0.000
718.347	-1.000
718.604	-1.000
718.860	-2.000
719.117	-6.000
719.373	1.000
719.630	-1.000
719.886	-1.000
720.143	-3.000
720.400	-3.000
720.656	-5.000
720.913	-2.000
721.169	-3.000
721.426	-1.000
721.682	3.000
721.939	-1.000
722.195	2.000
722.452	-6.000
722.708	-6.000
722.965	3.000
723.221	-1.000
723.478	-5.000
723.734	-3.000
723.990	-2.000
724.247	-1.000
724.503	-3.000
724.760	-1.000
725.016	0.000
725.273	-6.000
725.529	-4.000
725.785	-4.000
726.042	-2.000
726.298	-8.000
726.554	-4.000
726.811	-3.000
727.067	-3.000
727.323	-2.000
727.580	-8.000
727.836	-1.000
728.092	57.000
728.349	59.000
728.605	32.000
728.861	0.000
729.118	-5.000
729.374	-2.000
729.630	-5.000
729.886	-2.000
730.143	-2.000
730.399	-2.000
730.655	-3.000
730.911	-4.000
731.168	-1.000
731.424	-5.000
731.680	-5.000
731.936	-1.000
732.193	1.000
732.449	-4.000
732.705	-3.000
732.961	-7.000
733.217	-5.000
733.473	-4.000
733.730	-3.000
733.986	1.000
734.242	-3.000
734.498	-5.000
734.754	-8.000
735.010	-5.000
735.266	-1.000
735.522	-4.000
735.778	-3.000
736.035	-5.000
736.291	-5.000
736.547	-3.000
736.803	0.000
737.059	-2.000
737.315	-6.000
737.571	-4.000
737.827	0.000
738.083	-6.000
738.339	-5.000
738.595	-3.000
738.851	1.000
739.107	-7.000
739.363	-8.000
739.619	-5.000
739.875	3.000
740.131	2.000
740.387	-4.000
740.643	-5.000
740.899	-6.000
741.155	-2.000
741.411	-1.000
741.666	-7.000
741.922	-3.000
742.178	0.000
742.434	1.000
742.690	1.000
742.946	0.000
743.202	2.000
743.458	-1.000
743.714	-1.000
743.969	-2.000
744.225	-3.000
744.481	-5.000
744.737	-3.000
744.993	-5.000
745.249	-4.000
745.504	-2.000
745.760	0.000
746.016	-3.000
746.272	-2.000
746.527	-3.000
746.783	-4.000
747.039	-1.000
747.295	-2.000
747.550	-1.000
747.806	-1.000
748.062	-3.000
748.318	3.000
748.573	-3.000
748.829	2.000
749.085	1.000
749.340	0.000
749.596	-1.000
749.852	-1.000
750.108	0.000
750.363	-3.000
750.619	1.000
750.874	-2.000
751.130	-4.000
751.386	-3.000
751.641	-2.000
751.897	-3.000
752.153	-4.000
752.408	-3.000
752.664	-4.000
752.919	-3.000
753.175	-4.000
753.430	-5.000
753.686	-3.000
753.942	0.000
754.197	-5.000
754.453	-4.000
754.708	1.000
754.964	1.000
755.219	1.000
755.475	-3.000
755.730	1.000
755.986	-1.000
756.241	-1.000
756.497	0.000
756.752	-3.000
757.008	-4.000
757.263	-1.000
757.519	-1.000
757.774	1.000
758.029	1.000
758.285	-5.000
758.540	-3.000
758.796	-6.000
759.051	-5.000
759.307	-5.000
759.562	-7.000
759.817	-3.000
760.073	-5.000
760.328	1.000
760.583	-2.000
760.839	-1.000
761.094	-4.000
761.349	-4.000
761.605	-3.000
761.860	-2.000
762.115	0.000
762.371	-3.000
762.626	-2.000
762.881	-7.000
763.137	-1.000
763.392	-2.000
763.647	-4.000
763.902	-2.000
764.158	0.000
764.413	5.000
764.668	-3.000
764.923	-3.000
765.179	0.000
765.434	-3.000
765.689	-2.000
765.944	-2.000
766.199	-4.000
766.455	1.000
766.710	-2.000
766.965	-1.000
767.220	-3.000
767.475	0.000
767.730	-3.000
767.985	-5.000
768.241	-3.000
768.496	-6.000
768.751	-1.000
769.006	-1.000
769.261	-4.000
769.516	-2.000
769.771	-1.000
770.026	0.000
770.281	0.000
770.536	-7.000
770.791	-5.000
771.047	-4.000
771.302	-8.000
771.557	-5.000
771.812	-2.000
772.067	-2.000
772.322	-8.000
772.577	-4.000
772.832	1.000
773.087	-2.000
773.342	-5.000
773.597	-3.000
773.852	-2.000
774.107	-3.000
774.361	-3.000
774.616	0.000
774.871	1.000
775.126	-2.000
775.381	2.000
775.636	1.000
775.891	-1.000
776.146	0.000
776.401	4.000
776.656	-1.000
776.911	-3.000
777.165	-3.000
777.420	-3.000
777.675	-3.000
777.930	-2.000
778.185	-3.000
778.440	1.000
778.694	1.000
778.949	-3.000
779.204	0.000
779.459	-3.000
779.714	-4.000
779.968	-4.000
780.223	0.000
780.478	-4.000
780.733	4.000
780.988	2.000
781.242	-4.000
781.497	-2.000
781.752	0.000
782.006	-3.000
782.261	-2.000
782.516	-1.000
782.771	1.000
783.025	-4.000
783.280	-1.000
783.535	-5.000
783.789	-5.000
784.044	-5.000
784.299	0.000
784.553	-3.000
784.808	2.000
785.063	0.000
785.317	3.000
785.572	3.000
785.826	0.000
786.081	0.000
786.336	-3.000
786.590	-2.000
786.845	2.000
787.099	0.000
787.354	0.000
787.609	2.000
787.863	0.000
788.118	-3.000
788.372	1.000
788.627	2.000
788.881	1.000
789.136	-3.000
789.390	0.000
789.645	-2.000
789.899	0.000
790.154	-2.000
790.408	-8.000
790.663	-3.000
790.917	-2.000
791.172	-5.000
791.426	-3.000
791.680	-4.000
791.935	-3.000
792.189	-3.000
792.444	-5.000
792.698	3.000
792.953	-2.000
793.207	-5.000
793.461	-3.000
793.716	-2.000
793.970	0.000
794.224	0.000
794.479	0.000
794.733	-5.000
794.987	-7.000
795.242	3.000
795.496	0.000
795.750	-5.000
796.005	-1.000
796.259	0.000
796.513	-6.000
796.768	-3.000
797.022	0.000
797.276	-1.000
797.530	1.000
797.785	-3.000
798.039	-1.000
798.293	-3.000
798.547	2.000
798.802	-3.000
799.056	-1.000
799.310	2.000
799.564	0.000
799.819	0.000
800.073	6.000
800.327	-2.000
800.581	2.000
800.835	0.000
801.089	-3.000
801.344	-2.000
801.598	-2.000
801.852	1.000
802.106	-4.000
802.360	-2.000
802.614	-2.000
802.868	-4.000
803.122	-2.000
803.377	-2.000
803.631	-3.000
803.885	0.000
804.139	-1.000
804.393	-2.000
804.647	0.000
804.901	-3.000
805.155	-6.000
805.409	0.000
805.663	0.000
805.917	0.000
806.171	-4.000
806.425	-4.000
806.679	1.000
806.933	-4.000
807.187	-3.000
807.441	-3.000
807.695	-5.000
807.949	-5.000
808.203	-1.000
808.457	-4.000
808.711	0.000
808.965	-1.000
809.219	-6.000
809.473	0.000
809.726	-4.000
809.980	-5.000
810.234	-1.000
810.488	-2.000
810.742	-6.000
810.996	-5.000
811.250	-5.000
811.504	-3.000
811.757	-3.000
812.011	-5.000
812.265	-2.000
812.519	2.000
812.773	-1.000
813.027	-5.000
813.280	-3.000
813.534	-6.000
813.788	-1.000
814.042	-1.000
814.295	-3.000
814.549	-6.000
814.803	-3.000
815.057	-6.000
815.310	-2.000
815.564	-4.000
815.818	-3.000
816.072	-3.000
816.325	0.000
816.579	-6.000
816.833	-7.000
817.086	-6.000
817.340	-7.000
817.594	-7.000
817.848	-1.000
818.101	-3.000
818.355	-5.000
818.608	-4.000
818.862	-4.000
819.116	-2.000
819.369	-6.000
819.623	-5.000
819.877	-7.000
820.130	-10.000
820.384	-6.000
820.637	-10.000
820.891	-6.000
821.144	-2.000
821.398	-3.000
821.652	-1.000
821.905	-2.000
822.159	-2.000
822.412	-6.000
822.666	-4.000
822.919	-3.000
823.173	-3.000
823.426	-2.000
823.680	-1.000
823.933	-2.000
824.187	-7.000
824.440	-1.000
824.694	-4.000
824.947	-6.000
825.201	-7.000
825.454	-1.000
825.707	-1.000
825.961	-5.000
826.214	-3.000
826.468	-5.000
826.721	-5.000
826.975	-3.000
827.228	-5.000
827.481	0.000
827.735	-1.000
827.988	-4.000
828.241	-1.000
828.495	0.000
828.748	-1.000
829.001	-2.000
829.255	-3.000
829.508	-2.000
829.761	-4.000
830.015	-2.000
830.268	-4.000
830.521	-1.000
830.775	-3.000
831.028	-3.000
831.281	-8.000
831.534	-3.000
831.788	-1.000
832.041	0.000
832.294	-4.000
832.547	-6.000
832.801	-3.000
833.054	-1.000
833.307	-6.000
833.560	-4.000
833.813	0.000
834.067	-2.000
834.320	-3.000
834.573	-4.000
834.826	-8.000
835.079	-5.000
835.332	1.000
835.586	-2.000
835.839	-5.000
836.092	-3.000
836.345	-6.000
836.598	-1.000
836.851	1.000
837.104	-5.000
837.357	-6.000
837.611	-5.000
837.864	-3.000
838.117	-2.000
838.370	-6.000
838.623	-5.000
838.876	-2.000
839.129	-5.000
839.382	-5.000
839.635	-1.000
839.888	-2.000
840.141	-1.000
840.394	-4.000
840.647	1.000
840.900	-7.000
841.153	-1.000
841.406	0.000
841.659	-7.000
841.912	-1.000
842.165	-4.000
842.418	-2.000
842.671	-1.000
842.924	0.000
843.176	-2.000
843.429	-1.000
843.682	0.000
843.935	-5.000
844.188	-3.000
844.441	-4.000
844.694	-3.000
844.947	-1.000
845.200	-3.000
845.452	-1.000
845.705	-4.000
845.958	-3.000
846.211	-5.000
846.464	-5.000
846.717	0.000
846.969	-1.000
847.222	-6.000
847.475	-3.000
847.728	-4.000
847.981	-4.000
848.233	-9.000
848.486	-6.000
848.739	-4.000
848.992	-9.000
849.244	-3.000
849.497	-6.000
849.750	-2.000
850.003	-2.000
850.255	-8.000
850.508	-5.000
850.761	-2.000
851.013	-3.000
851.266	-4.000
851.519	0.000
851.771	-3.000
852.024	0.000
852.277	-3.000
852.529	-1.000
852.782	-4.000
853.035	2.000
853.287	-2.000
853.540	-2.000
853.792	-1.000
854.045	0.000
854.298	-3.000
854.550	-5.000
854.803	0.000
855.055	-5.000
855.308	-2.000
855.560	-3.000
855.813	0.000
856.066	-3.000
856.318	-4.000
856.571	-5.000
856.823	-7.000
857.076	-2.000
857.328	-1.000
857.581	0.000
857.833	-8.000
858.086	-2.000
858.338	-4.000
858.591	-4.000
858.843	-2.000
859.095	-3.000
859.348	-4.000
859.600	-5.000
859.853	-5.000
860.105	-3.000
860.358	-3.000
860.610	1.000
860.862	-1.000
861.115	0.000
861.367	-6.000
861.620	0.000
861.872	-1.000
862.124	0.000
862.377	-6.000
862.629	-3.000
862.881	-4.000
863.134	1.000
863.386	-4.000
863.638	-1.000
863.891	0.000
864.143	-4.000
864.395	-6.000
864.648	-4.000
864.900	-7.000
865.152	-4.000
865.404	-2.000
865.657	-3.000
865.909	-4.000
866.161	-8.000
866.413	2.000
866.666	-3.000
866.918	-4.000
867.170	-1.000
867.422	-4.000
867.674	0.000
867.927	-2.000
868.179	-4.000
868.431	-4.000
868.683	-4.000
868.935	0.000
869.187	-1.000
869.440	-2.000
869.692	-4.000
869.944	-1.000
870.196	0.000
870.448	-2.000
870.700	-1.000
870.952	-4.000
871.204	1.000
871.457	-3.000
871.709	0.000
871.961	0.000
872.213	-2.000
872.465	-1.000
872.717	-2.000
872.969	-1.000
873.221	-1.000
873.473	-3.000
873.725	-6.000
873.977	-6.000
874.229	-6.000
874.481	-9.000
874.733	-1.000
874.985	-2.000
875.237	-5.000
875.489	-1.000
875.741	-2.000
875.993	-2.000
876.245	-3.000
876.497	-5.000
876.749	-6.000
877.001	-3.000
877.253	-5.000
877.504	-3.000
877.756	-2.000
878.008	-6.000
878.260	-2.000
878.512	-6.000
878.764	-3.000
879.016	1.000
879.268	0.000
879.519	-2.000
879.771	-3.000
880.023	1.000
880.275	-1.000
880.527	-2.000
880.779	-6.000
881.030	-5.000
881.282	-7.000
881.534	-7.000
881.786	-1.000
882.038	-4.000
882.289	-4.000
882.541	-2.000
882.793	-2.000
883.045	-5.000
883.296	-6.000
883.548	-7.000
883.800	-3.000
884.052	-2.000
884.303	-7.000
884.555	-3.000
884.807	-2.000
885.058	-2.000
885.310	1.000
885.562	-4.000
885.813	-7.000
886.065	-4.000
886.317	-2.000
886.568	-5.000
886.820	-2.000
887.072	-5.000
887.323	-7.000
887.575	-6.000
887.826	-3.000
888.078	-3.000
888.330	-2.000
888.581	-1.000
888.833	-6.000
889.084	-3.000
889.336	-2.000
889.587	-2.000
889.839	-1.000
890.091	-2.000
890.342	1.000
890.594	1.000
890.845	0.000
891.097	4.000
891.348	-4.000
891.600	-3.000
891.851	-1.000
892.103	2.000
892.354	-2.000
892.606	0.000
892.857	3.000
893.108	-3.000
893.360	1.000
893.611	-5.000
893.863	-4.000
894.114	-2.000
894.366	-1.000
894.617	0.000
894.868	-2.000
895.120	-2.000
895.371	-4.000
895.623	-5.000
895.874	-2.000
896.125	0.000
896.377	-1.000
896.628	0.000
896.879	-1.000
897.131	-2.000
897.382	6.000
897.633	2.000
897.885	-1.000
898.136	1.000
898.387	-2.000
898.639	-5.000
898.890	-1.000
899.141	-2.000
899.392	-5.000
899.644	2.000
899.895	-6.000
900.146	1.000
900.397	0.000
900.649	-5.000
900.900	2.000
901.151	1.000
901.402	-2.000
901.653	3.000
901.905	-2.000
902.156	-2.000
902.407	1.000
902.658	-3.000
902.909	-1.000
903.160	-1.000
903.412	1.000
903.663	-1.000
903.914	2.000
904.165	-1.000
904.416	-3.000
904.667	-2.000
904.918	0.000
905.169	-2.000
905.421	-2.000
905.672	-4.000
905.923	3.000
906.174	-1.000
906.425	-1.000
906.676	-1.000
906.927	0.000
907.178	0.000
907.429	0.000
907.680	-6.000
907.931	0.000
908.182	1.000
908.433	2.000
908.684	0.000
908.935	1.000
909.186	3.000
909.437	4.000
909.688	1.000
909.939	-4.000
910.190	-3.000
910.441	-3.000
910.692	-4.000
910.943	-1.000
911.194	-2.000
911.445	0.000
911.695	-2.000
911.946	-5.000
912.197	0.000
912.448	-1.000
912.699	-2.000
912.950	3.000
913.201	3.000
913.452	4.000
913.702	0.000
913.953	-4.000
914.204	-4.000
914.455	-1.000
914.706	-3.000
914.957	1.000
915.207	-2.000
915.458	-7.000
915.709	-3.000
915.960	1.000
916.210	-3.000
916.461	3.000
916.712	2.000
916.963	-6.000
917.213	-2.000
917.464	-4.000
917.715	2.000
917.966	1.000
918.216	0.000
918.467	-3.000
918.718	-1.000
918.969	0.000
919.219	0.000
919.470	-4.000
919.721	-2.000
919.971	2.000
920.222	0.000
920.473	-5.000
920.723	1.000
920.974	-3.000
921.224	-4.000
921.475	0.000
921.726	0.000
921.976	2.000
922.227	3.000
922.477	2.000
922.728	-1.000
922.979	3.000
923.229	2.000
923.480	-1.000
923.730	2.000
923.981	-6.000
924.231	-6.000
924.482	-1.000
924.732	-1.000
924.983	2.000
925.233	1.000
925.484	-2.000
925.734	-4.000
925.985	-2.000
926.235	0.000
926.486	-4.000
926.736	-3.000
926.987	-4.000
927.237	-1.000
927.488	-4.000
927.738	-1.000
927.989	0.000
928.239	-2.000
928.489	-2.000
928.740	-4.000
928.990	-4.000
929.241	-2.000
929.491	-5.000
929.741	-2.000
929.992	-2.000
930.242	-4.000
930.492	-2.000
930.743	-2.000
930.993	0.000
931.243	-1.000
931.494	1.000
931.744	-3.000
931.994	-1.000
932.245	-2.000
932.495	0.000
932.745	-6.000
932.996	-1.000
933.246	-6.000
933.496	-2.000
933.746	-1.000
933.997	4.000
934.247	-4.000
934.497	-2.000
934.747	-3.000
934.998	1.000
935.248	3.000
935.498	0.000
935.748	0.000
935.998	3.000
936.249	-1.000
936.499	0.000
936.749	1.000
936.999	-4.000
937.249	2.000
937.499	3.000
937.750	1.000
938.000	-3.000
938.250	4.000
938.500	4.000
938.750	2.000
939.000	0.000
939.250	4.000
939.500	2.000
939.750	-4.000
940.000	-2.000
940.251	0.000
940.501	-3.000
940.751	-1.000
941.001	-2.000
941.251	-1.000
941.501	0.000
941.751	7.000
942.001	1.000
942.251	3.000
942.501	-2.000
942.751	1.000
943.001	0.000
943.251	1.000
943.501	-2.000
943.751	-5.000
944.001	-2.000
944.251	-5.000
944.501	-3.000
944.751	-1.000
945.000	0.000
945.250	-3.000
945.500	2.000
945.750	-3.000
946.000	-1.000
946.250	-3.000
946.500	-5.000
946.750	-2.000
947.000	-3.000
947.249	2.000
947.499	-1.000
947.749	1.000
947.999	-3.000
948.249	-1.000
948.499	0.000
948.749	-3.000
948.998	-5.000
949.248	-1.000
949.498	-3.000
949.748	0.000
949.997	1.000
950.247	-2.000
950.497	-2.000
950.747	-3.000
950.997	-3.000
951.246	0.000
951.496	0.000
951.746	2.000
951.995	0.000
952.245	0.000
952.495	-1.000
952.745	-4.000
952.994	-7.000
953.244	-6.000
953.494	2.000
953.743	-3.000
953.993	3.000
954.243	-4.000
954.492	-1.000
954.742	-4.000
954.992	-3.000
955.241	1.000
955.491	-3.000
955.740	-3.000
955.990	2.000
956.240	-6.000
956.489	-1.000
956.739	0.000
956.988	-3.000
957.238	-1.000
957.488	-1.000
957.737	-2.000
957.987	0.000
958.236	-1.000
958.486	-1.000
958.735	-2.000
958.985	-1.000
959.234	-2.000
959.484	-3.000
959.733	-3.000
959.983	-3.000
960.232	-4.000
960.482	0.000
960.731	-5.000
960.981	-3.000
961.230	-1.000
961.480	-7.000
961.729	1.000
961.978	0.000
962.228	-4.000
962.477	3.000
962.727	-1.000
962.976	0.000
963.226	-1.000
963.475	3.000
963.724	0.000
963.974	-3.000
964.223	-4.000
964.472	1.000
964.722	-4.000
964.971	-5.000
965.220	2.000
965.470	-4.000
965.719	-6.000
965.968	-2.000
966.218	-4.000
966.467	-1.000
966.716	0.000
966.966	-1.000
967.215	-4.000
967.464	-3.000
967.713	-3.000
967.963	-3.000
968.212	2.000
968.461	1.000
968.710	0.000
968.960	-1.000
969.209	0.000
969.458	-2.000
969.707	0.000
969.956	-2.000
970.206	-3.000
970.455	1.000
970.704	-1.000
970.953	-3.000
971.202	1.000
971.451	0.000
971.701	-6.000
971.950	0.000
972.199	-3.000
972.448	-7.000
972.697	0.000
972.946	-1.000
973.195	-5.000
973.444	-4.000
973.694	-6.000
973.943	-2.000
974.192	-4.000
974.441	0.000
974.690	-5.000
974.939	-3.000
975.188	-5.000
975.437	-3.000
975.686	-3.000
975.935	-8.000
976.184	-1.000
976.433	-3.000
976.682	-3.000
976.931	0.000
977.180	-2.000
977.429	-1.000
977.678	-4.000
977.927	0.000
978.176	0.000
978.425	-9.000
978.674	-3.000
978.923	0.000
979.172	-3.000
979.421	-2.000
979.670	-3.000
979.918	-6.000
980.167	1.000
980.416	1.000
980.665	-4.000
980.914	-9.000
981.163	-3.000
981.412	-5.000
981.661	-4.000
981.909	0.000
982.158	-3.000
982.407	-5.000
982.656	-6.000
982.905	-2.000
983.154	-3.000
983.402	-3.000
983.651	-3.000
983.900	-3.000
984.149	-4.000
984.398	-3.000
984.646	-5.000
984.895	-3.000
985.144	-4.000
985.393	1.000
985.641	0.000
985.890	-1.000
986.139	-2.000
986.387	0.000
986.636	1.000
986.885	-1.000
987.134	-2.000
987.382	-4.000
987.631	-3.000
987.880	5.000
988.128	-1.000
988.377	-5.000
988.626	-6.000
988.874	-1.000
989.123	-3.000
989.372	-3.000
989.620	-5.000
989.869	-1.000
990.117	-4.000
990.366	-1.000
990.615	-5.000
990.863	-7.000
991.112	-4.000
991.360	-1.000
991.609	-1.000
991.857	-3.000
992.106	-4.000
992.355	-1.000
992.603	-4.000
992.852	0.000
993.100	-5.000
993.349	-4.000
993.597	-1.000
993.846	-1.000
994.094	-2.000
994.343	-5.000
994.591	-6.000
994.840	-4.000
995.088	-6.000
995.336	-5.000
995.585	-3.000
995.833	-5.000
996.082	-4.000
996.330	-5.000
996.579	-2.000
996.827	-7.000
997.075	-7.000
997.324	-6.000
997.572	-3.000
997.821	-5.000
998.069	-2.000
998.317	-6.000
998.566	-3.000
998.814	-4.000
999.062	-5.000
999.311	-10.000
999.559	-8.000
999.807	-3.000
1000.056	-3.000
1000.304	-4.000
1000.552	-5.000
1000.801	-6.000
1001.049	-7.000
1001.297	-6.000
1001.546	-2.000
1001.794	-3.000
1002.042	-1.000
1002.290	-3.000
1002.539	-3.000
1002.787	-3.000
1003.035	-3.000
1003.283	-8.000
1003.531	-1.000
1003.780	-7.000
1004.028	-5.000
1004.276	-5.000
1004.524	-8.000
1004.772	-7.000
1005.021	-4.000
1005.269	-4.000
1005.517	-5.000
1005.765	-4.000
1006.013	-5.000
1006.261	-5.000
1006.509	-1.000
1006.758	-1.000
1007.006	-5.000
1007.254	-3.000
1007.502	-2.000
1007.750	-3.000
1007.998	-3.000
1008.246	-2.000
1008.494	-10.000
1008.742	-6.000
1008.990	-6.000
1009.238	-8.000
1009.486	-4.000
1009.735	-4.000
1009.983	-2.000
1010.231	-1.000
1010.479	1.000
1010.727	2.000
1010.975	0.000
1011.223	0.000
1011.471	-2.000
1011.719	-1.000
1011.967	-4.000
1012.214	-6.000
1012.462	-2.000
1012.710	-2.000
1012.958	-1.000
1013.206	-2.000
1013.454	-2.000
1013.702	-9.000
1013.950	-2.000
1014.198	-3.000
1014.446	-1.000
1014.694	-8.000
1014.942	-4.000
1015.189	-3.000
1015.437	-2.000
1015.685	1.000
1015.933	-4.000
1016.181	-5.000
1016.429	1.000
1016.677	0.000
1016.924	-4.000
1017.172	-5.000
1017.420	-5.000
1017.668	-7.000
1017.916	-1.000
1018.163	-4.000
1018.411	-2.000
1018.659	-4.000
1018.907	-8.000
1019.155	0.000
1019.402	-5.000
1019.650	-8.000
1019.898	-8.000
1020.145	-4.000
1020.393	-4.000
1020.641	-6.000
1020.889	0.000
1021.136	-6.000
1021.384	-4.000
1021.632	-1.000
1021.879	-4.000
1022.127	-3.000
1022.375	-2.000
1022.622	0.000
1022.870	-7.000
1023.118	-4.000
1023.365	-2.000
1023.613	-7.000
1023.861	-9.000
1024.108	-7.000
1024.356	-1.000
1024.603	-9.000
1024.851	-2.000
1025.099	-3.000
1025.346	-6.000
1025.594	-3.000
1025.841	-1.000
1026.089	-1.000
1026.336	-6.000
1026.584	2.000
1026.832	-2.000
1027.079	-1.000
1027.327	-3.000
1027.574	-4.000
1027.822	-3.000
1028.069	0.000
1028.317	-4.000
1028.564	-2.000
1028.812	-7.000
1029.059	-10.000
1029.306	-4.000
1029.554	-1.000
1029.801	0.000
1030.049	-1.000
1030.296	-2.000
1030.544	-4.000
1030.791	-4.000
1031.039	0.000
1031.286	0.000
1031.533	2.000
1031.781	0.000
1032.028	-2.000
1032.276	-6.000
1032.523	-5.000
1032.770	-8.000
1033.018	-6.000
1033.265	-4.000
1033.512	-5.000
1033.760	-2.000
1034.007	-7.000
1034.254	-1.000
1034.502	1.000
1034.749	0.000
1034.996	4.000
1035.243	-5.000
1035.491	-3.000
1035.738	3.000
1035.985	-1.000
1036.233	-2.000
1036.480	0.000
1036.727	-5.000
1036.974	-7.000
1037.222	-8.000
1037.469	-7.000
1037.716	-3.000
1037.963	-2.000
1038.210	0.000
1038.458	-4.000
1038.705	-1.000
1038.952	2.000
1039.199	-8.000
1039.446	-4.000
1039.693	-4.000
1039.941	-5.000
1040.188	-5.000
1040.435	-7.000
1040.682	-3.000
1040.929	1.000
1041.176	-1.000
1041.423	-9.000
1041.671	-2.000
1041.918	-8.000
1042.165	-7.000
1042.412	-7.000
1042.659	-1.000
1042.906	-1.000
1043.153	-1.000
1043.400	-2.000
1043.647	-5.000
1043.894	-1.000
1044.141	0.000
1044.388	-5.000
1044.635	0.000
1044.882	3.000
1045.129	-3.000
1045.376	-5.000
1045.623	-2.000
1045.870	-1.000
1046.117	0.000
1046.364	-5.000
1046.611	-2.000
1046.858	-1.000
1047.105	-2.000
1047.352	-3.000
1047.599	1.000
1047.846	-1.000
1048.093	-2.000
1048.340	-4.000
1048.587	-1.000
1048.833	2.000
1049.080	-5.000
1049.327	-4.000
1049.574	1.000
1049.821	-3.000
1050.068	2.000
1050.315	-3.000
1050.561	0.000
1050.808	-5.000
1051.055	-3.000
1051.302	-1.000
1051.549	-2.000
1051.796	-5.000
1052.042	-5.000
1052.289	-2.000
1052.536	-1.000
1052.783	-2.000
1053.030	0.000
1053.276	-4.000
1053.523	-7.000
1053.770	-2.000
1054.017	-2.000
1054.263	-1.000
1054.510	-3.000
1054.757	-7.000
1055.003	1.000
1055.250	-5.000
1055.497	-8.000
1055.744	-5.000
1055.990	-7.000
1056.237	-5.000
1056.484	-5.000
1056.730	-4.000
1056.977	-5.000
1057.224	-2.000
1057.470	-5.000
1057.717	0.000
1057.963	-2.000
1058.210	-5.000
1058.457	2.000
1058.703	1.000
1058.950	0.000
1059.197	0.000
1059.443	3.000
1059.690	1.000
1059.936	2.000
1060.183	-2.000
1060.429	-3.000
1060.676	-4.000
1060.922	-1.000
1061.169	-2.000
1061.416	-2.000
1061.662	1.000
1061.909	-2.000
1062.155	-4.000
1062.402	-3.000
1062.648	-1.000
1062.895	2.000
1063.141	-2.000
1063.387	-2.000
1063.634	1.000
1063.880	1.000
1064.127	-5.000
1064.373	-3.000
1064.620	-4.000
1064.866	-5.000
1065.113	0.000
1065.359	-2.000
1065.605	1.000
1065.852	1.000
1066.098	1.000
1066.345	-6.000
1066.591	-2.000
1066.837	-3.000
1067.084	-2.000
1067.330	2.000
1067.576	-2.000
1067.823	3.000
1068.069	-1.000
1068.315	-3.000
1068.562	1.000
1068.808	1.000
1069.054	-5.000
1069.301	2.000
1069.547	1.000
1069.793	0.000
1070.040	-1.000
1070.286	-1.000
1070.532	1.000
1070.778	-1.000
1071.025	-1.000
1071.271	-3.000
1071.517	-4.000
1071.763	0.000
1072.009	-3.000
1072.256	-3.000
1072.502	6.000
1072.748	1.000
1072.994	1.000
1073.240	0.000
1073.487	-2.000
1073.733	-2.000
1073.979	1.000
1074.225	-1.000
1074.471	0.000
1074.717	0.000
1074.964	0.000
1075.210	1.000
1075.456	2.000
1075.702	-1.000
1075.948	-6.000
1076.194	-4.000
1076.440	0.000
1076.686	1.000
1076.932	-3.000
1077.178	1.000
1077.425	-1.000
1077.671	-2.000
1077.917	-4.000
1078.163	-2.000
1078.409	-4.000
1078.655	0.000
1078.901	0.000
1079.147	-2.000
1079.393	1.000
1079.639	-1.000
1079.885	0.000
1080.131	-1.000
1080.377	-1.000
1080.623	3.000
1080.869	-1.000
1081.115	-1.000
1081.361	0.000
1081.606	-2.000
1081.852	0.000
1082.098	3.000
1082.344	2.000
1082.590	-1.000
1082.836	-2.000
1083.082	0.000
1083.328	-3.000
1083.574	-1.000
1083.820	-4.000
1084.065	-6.000
1084.311	-1.000
1084.557	-3.000
1084.803	0.000
1085.049	-2.000
1085.295	-1.000
1085.541	0.000
1085.786	-2.000
1086.032	-7.000
1086.278	-2.000
1086.524	-1.000
1086.770	-2.000
1087.015	-4.000
1087.261	1.000
1087.507	-4.000
1087.753	-3.000
1087.998	-8.000
1088.244	-6.000
1088.490	-3.000
1088.736	-5.000
1088.981	0.000
1089.227	-1.000
1089.473	-6.000
1089.719	-2.000
1089.964	4.000
1090.210	1.000
1090.456	3.000
1090.701	0.000
1090.947	2.000
1091.193	-1.000
1091.438	-5.000
1091.684	1.000
1091.930	-5.000
1092.175	4.000
1092.421	-6.000
1092.666	-4.000
1092.912	1.000
1093.158	-1.000
1093.403	-5.000
1093.649	0.000
1093.894	0.000
1094.140	-1.000
1094.386	1.000
1094.631	0.000
1094.877	0.000
1095.122	1.000
1095.368	1.000
1095.613	-3.000
1095.859	3.000
1096.104	0.000
1096.350	-1.000
1096.595	7.000
1096.841	2.000
1097.086	4.000
1097.332	-3.000
1097.577	-4.000
1097.823	-3.000
1098.068	1.000
1098.314	1.000
1098.559	3.000
1098.805	3.000
1099.050	0.000
1099.295	1.000
1099.541	-3.000
1099.786	1.000
+++++End Spectral Data+++++
