Spectrometer Data
EN
------------------------------
Saving Time:Wed, Jan 21, 2026 13:51:18
Device Name:Aurora 4000
Version Info:V9_84
Serial Number:220120190816098402001100
Integral Time(æs):5000
Avg Count:1
Smoothness:0
Data Type:(0 1)Wavelength-Delete Dark
X-Axis Unit:nm
Y-Axis Unit:counts
Pixel Count:3482
Reserve0:250
Other Description:
+++++Begin Spectral Data+++++
200.149	-3.000
200.421	-4.000
200.693	-6.000
200.966	-2.000
201.238	3.000
201.510	-2.000
201.782	-2.000
202.054	-2.000
202.326	-4.000
202.598	-1.000
202.870	0.000
203.142	-3.000
203.414	-4.000
203.686	-3.000
203.958	-1.000
204.230	-1.000
204.502	2.000
204.774	-1.000
205.046	2.000
205.318	-3.000
205.590	2.000
205.861	-1.000
206.133	-2.000
206.405	-5.000
206.677	-3.000
206.949	-3.000
207.221	-6.000
207.493	-1.000
207.765	-4.000
208.037	-3.000
208.308	-1.000
208.580	-1.000
208.852	0.000
209.124	-2.000
209.396	-2.000
209.668	-4.000
209.939	-1.000
210.211	2.000
210.483	-1.000
210.755	-2.000
211.027	1.000
211.298	-5.000
211.570	3.000
211.842	3.000
212.114	-1.000
212.385	-2.000
212.657	-1.000
212.929	-2.000
213.200	0.000
213.472	-1.000
213.744	-6.000
214.016	-6.000
214.287	-6.000
214.559	-5.000
214.831	-1.000
215.102	2.000
215.374	0.000
215.645	-2.000
215.917	-3.000
216.189	0.000
216.460	1.000
216.732	-5.000
217.004	-3.000
217.275	-4.000
217.547	0.000
217.818	-3.000
218.090	0.000
218.361	-2.000
218.633	-1.000
218.904	-4.000
219.176	2.000
219.448	-3.000
219.719	3.000
219.991	-2.000
220.262	0.000
220.534	-2.000
220.805	5.000
221.076	-1.000
221.348	0.000
221.619	0.000
221.891	-1.000
222.162	0.000
222.434	-1.000
222.705	2.000
222.977	0.000
223.248	-2.000
223.519	-1.000
223.791	0.000
224.062	-6.000
224.333	1.000
224.605	0.000
224.876	-3.000
225.148	-6.000
225.419	-1.000
225.690	1.000
225.962	4.000
226.233	-4.000
226.504	-2.000
226.775	1.000
227.047	-2.000
227.318	-1.000
227.589	2.000
227.861	0.000
228.132	0.000
228.403	2.000
228.674	-2.000
228.946	-1.000
229.217	1.000
229.488	-1.000
229.759	-2.000
230.030	0.000
230.302	-3.000
230.573	0.000
230.844	-3.000
231.115	-6.000
231.386	-7.000
231.657	0.000
231.929	-6.000
232.200	0.000
232.471	1.000
232.742	-2.000
233.013	-5.000
233.284	0.000
233.555	-1.000
233.826	2.000
234.097	-3.000
234.369	-3.000
234.640	-1.000
234.911	2.000
235.182	-1.000
235.453	2.000
235.724	-1.000
235.995	-5.000
236.266	-4.000
236.537	-3.000
236.808	-2.000
237.079	-4.000
237.350	-6.000
237.621	0.000
237.892	2.000
238.163	0.000
238.434	-4.000
238.705	0.000
238.975	0.000
239.246	0.000
239.517	3.000
239.788	-1.000
240.059	-2.000
240.330	-7.000
240.601	-8.000
240.872	-8.000
241.143	-3.000
241.413	-2.000
241.684	0.000
241.955	-1.000
242.226	2.000
242.497	1.000
242.768	0.000
243.038	-3.000
243.309	0.000
243.580	-1.000
243.851	1.000
244.122	-3.000
244.392	-3.000
244.663	-1.000
244.934	-2.000
245.205	-3.000
245.475	-2.000
245.746	0.000
246.017	-3.000
246.288	-5.000
246.558	-2.000
246.829	-4.000
247.100	-6.000
247.370	-4.000
247.641	-2.000
247.912	-2.000
248.182	-4.000
248.453	-1.000
248.724	-1.000
248.994	-7.000
249.265	-5.000
249.535	-5.000
249.806	-5.000
250.077	-7.000
250.347	-6.000
250.618	0.000
250.888	-2.000
251.159	-3.000
251.430	-3.000
251.700	0.000
251.971	1.000
252.241	0.000
252.512	1.000
252.782	-1.000
253.053	-2.000
253.323	-4.000
253.594	-1.000
253.864	-4.000
254.135	-3.000
254.405	-3.000
254.676	-3.000
254.946	-3.000
255.216	-6.000
255.487	-1.000
255.757	-5.000
256.028	-4.000
256.298	-1.000
256.569	-1.000
256.839	-5.000
257.109	-4.000
257.380	2.000
257.650	-5.000
257.920	-4.000
258.191	-2.000
258.461	-2.000
258.731	-6.000
259.002	-6.000
259.272	-4.000
259.542	-2.000
259.813	-3.000
260.083	-2.000
260.353	1.000
260.624	-9.000
260.894	-2.000
261.164	2.000
261.434	-2.000
261.705	1.000
261.975	-1.000
262.245	-2.000
262.515	-2.000
262.786	-3.000
263.056	-3.000
263.326	-1.000
263.596	2.000
263.866	-2.000
264.137	-3.000
264.407	-1.000
264.677	-3.000
264.947	-4.000
265.217	-3.000
265.487	-2.000
265.757	-3.000
266.027	-4.000
266.298	-4.000
266.568	-4.000
266.838	-1.000
267.108	-3.000
267.378	-4.000
267.648	-4.000
267.918	1.000
268.188	2.000
268.458	-2.000
268.728	-4.000
268.998	-5.000
269.268	-5.000
269.538	-4.000
269.808	-5.000
270.078	-2.000
270.348	-2.000
270.618	-3.000
270.888	-2.000
271.158	-2.000
271.428	-5.000
271.698	-5.000
271.968	-3.000
272.238	-2.000
272.508	-4.000
272.778	-5.000
273.048	-6.000
273.318	-2.000
273.587	-4.000
273.857	-1.000
274.127	-1.000
274.397	-2.000
274.667	-6.000
274.937	-2.000
275.207	-1.000
275.476	-1.000
275.746	-5.000
276.016	-4.000
276.286	2.000
276.556	-2.000
276.826	-1.000
277.095	-5.000
277.365	-5.000
277.635	-3.000
277.905	-3.000
278.174	-5.000
278.444	-3.000
278.714	-4.000
278.984	-7.000
279.253	-2.000
279.523	-1.000
279.793	-4.000
280.062	0.000
280.332	-1.000
280.602	-2.000
280.871	-4.000
281.141	-3.000
281.411	1.000
281.680	-1.000
281.950	2.000
282.220	-9.000
282.489	-9.000
282.759	2.000
283.029	-5.000
283.298	-2.000
283.568	-3.000
283.837	-5.000
284.107	-3.000
284.376	-4.000
284.646	-5.000
284.916	1.000
285.185	-3.000
285.455	-5.000
285.724	-5.000
285.994	-4.000
286.263	0.000
286.533	-2.000
286.802	1.000
287.072	-2.000
287.341	-4.000
287.611	-2.000
287.880	-2.000
288.149	-4.000
288.419	-4.000
288.688	-3.000
288.958	-4.000
289.227	-6.000
289.497	-1.000
289.766	-1.000
290.035	1.000
290.305	-1.000
290.574	-4.000
290.844	-5.000
291.113	-3.000
291.382	-6.000
291.652	-2.000
291.921	-2.000
292.190	0.000
292.460	0.000
292.729	-3.000
292.998	1.000
293.268	-2.000
293.537	-4.000
293.806	1.000
294.075	1.000
294.345	1.000
294.614	-1.000
294.883	-4.000
295.152	-7.000
295.422	-1.000
295.691	0.000
295.960	-4.000
296.229	-6.000
296.498	-2.000
296.768	0.000
297.037	-1.000
297.306	-2.000
297.575	-1.000
297.844	3.000
298.114	-2.000
298.383	-6.000
298.652	-7.000
298.921	0.000
299.190	-4.000
299.459	-4.000
299.728	-5.000
299.997	-2.000
300.266	5.000
300.536	-1.000
300.805	-2.000
301.074	-2.000
301.343	-1.000
301.612	-2.000
301.881	-1.000
302.150	-2.000
302.419	-4.000
302.688	-2.000
302.957	-3.000
303.226	-4.000
303.495	-5.000
303.764	0.000
304.033	-1.000
304.302	-1.000
304.571	-2.000
304.840	2.000
305.109	-3.000
305.378	-2.000
305.646	-3.000
305.915	-3.000
306.184	3.000
306.453	-2.000
306.722	0.000
306.991	-3.000
307.260	-4.000
307.529	-2.000
307.798	-5.000
308.066	-2.000
308.335	-7.000
308.604	-3.000
308.873	-2.000
309.142	-1.000
309.411	-1.000
309.679	0.000
309.948	-2.000
310.217	2.000
310.486	-5.000
310.755	-3.000
311.023	-2.000
311.292	-1.000
311.561	1.000
311.830	1.000
312.098	-1.000
312.367	-4.000
312.636	-3.000
312.904	-6.000
313.173	0.000
313.442	-2.000
313.711	-4.000
313.979	1.000
314.248	-2.000
314.517	-3.000
314.785	-2.000
315.054	-2.000
315.322	-3.000
315.591	-1.000
315.860	-1.000
316.128	-5.000
316.397	-4.000
316.665	-8.000
316.934	-1.000
317.203	-8.000
317.471	0.000
317.740	-2.000
318.008	-3.000
318.277	-1.000
318.545	0.000
318.814	-3.000
319.082	-2.000
319.351	0.000
319.619	-4.000
319.888	1.000
320.156	-2.000
320.425	-3.000
320.693	-4.000
320.962	-3.000
321.230	-4.000
321.499	-7.000
321.767	-2.000
322.036	0.000
322.304	0.000
322.573	-1.000
322.841	2.000
323.109	-5.000
323.378	-1.000
323.646	-2.000
323.914	-5.000
324.183	-4.000
324.451	-3.000
324.720	-5.000
324.988	0.000
325.256	0.000
325.525	0.000
325.793	0.000
326.061	1.000
326.330	-1.000
326.598	0.000
326.866	1.000
327.134	3.000
327.403	-3.000
327.671	1.000
327.939	-1.000
328.207	-1.000
328.476	0.000
328.744	-5.000
329.012	-4.000
329.280	-7.000
329.549	-5.000
329.817	-8.000
330.085	-4.000
330.353	-3.000
330.621	3.000
330.889	-3.000
331.158	0.000
331.426	-3.000
331.694	-6.000
331.962	-2.000
332.230	0.000
332.498	-1.000
332.766	1.000
333.035	-6.000
333.303	-1.000
333.571	-1.000
333.839	-2.000
334.107	-1.000
334.375	3.000
334.643	-5.000
334.911	-2.000
335.179	-4.000
335.447	-3.000
335.715	-3.000
335.983	0.000
336.251	-3.000
336.519	-5.000
336.787	-1.000
337.055	-3.000
337.323	-2.000
337.591	-3.000
337.859	0.000
338.127	-5.000
338.395	-3.000
338.663	-8.000
338.931	-5.000
339.199	0.000
339.467	-4.000
339.734	-2.000
340.002	0.000
340.270	-3.000
340.538	-1.000
340.806	-4.000
341.074	-2.000
341.342	-2.000
341.610	3.000
341.877	-1.000
342.145	-3.000
342.413	-2.000
342.681	-1.000
342.949	0.000
343.216	-4.000
343.484	-4.000
343.752	1.000
344.020	1.000
344.288	-4.000
344.555	-3.000
344.823	-3.000
345.091	-2.000
345.359	0.000
345.626	-3.000
345.894	1.000
346.162	0.000
346.429	-2.000
346.697	-1.000
346.965	1.000
347.232	-1.000
347.500	-2.000
347.768	-2.000
348.035	3.000
348.303	-2.000
348.571	3.000
348.838	1.000
349.106	-2.000
349.374	-1.000
349.641	-3.000
349.909	-2.000
350.176	-1.000
350.444	0.000
350.712	-2.000
350.979	-1.000
351.247	-3.000
351.514	-1.000
351.782	-2.000
352.049	-6.000
352.317	0.000
352.584	-1.000
352.852	-2.000
353.119	-4.000
353.387	-1.000
353.654	-7.000
353.922	-6.000
354.189	-3.000
354.457	0.000
354.724	-1.000
354.992	-3.000
355.259	-6.000
355.526	1.000
355.794	-3.000
356.061	-2.000
356.329	-4.000
356.596	-4.000
356.863	-5.000
357.131	-1.000
357.398	-6.000
357.666	0.000
357.933	-1.000
358.200	-1.000
358.468	-5.000
358.735	-2.000
359.002	-2.000
359.270	-3.000
359.537	0.000
359.804	0.000
360.071	0.000
360.339	-4.000
360.606	-1.000
360.873	-2.000
361.141	-1.000
361.408	-4.000
361.675	0.000
361.942	-7.000
362.210	1.000
362.477	-2.000
362.744	2.000
363.011	-1.000
363.278	-3.000
363.546	-1.000
363.813	-1.000
364.080	-7.000
364.347	-4.000
364.614	-5.000
364.881	-1.000
365.148	0.000
365.416	0.000
365.683	-3.000
365.950	-2.000
366.217	-1.000
366.484	-5.000
366.751	-3.000
367.018	-1.000
367.285	0.000
367.552	-1.000
367.819	-2.000
368.086	-6.000
368.354	1.000
368.621	0.000
368.888	-1.000
369.155	-1.000
369.422	1.000
369.689	-3.000
369.956	3.000
370.223	-4.000
370.490	-2.000
370.757	-2.000
371.024	-4.000
371.290	1.000
371.557	0.000
371.824	-1.000
372.091	0.000
372.358	2.000
372.625	3.000
372.892	-3.000
373.159	-3.000
373.426	1.000
373.693	-4.000
373.960	-1.000
374.226	-4.000
374.493	-1.000
374.760	-6.000
375.027	-4.000
375.294	-3.000
375.561	-4.000
375.827	-9.000
376.094	-1.000
376.361	-4.000
376.628	-5.000
376.895	-4.000
377.161	0.000
377.428	-3.000
377.695	5.000
377.962	-2.000
378.228	2.000
378.495	-4.000
378.762	-1.000
379.029	-7.000
379.295	2.000
379.562	0.000
379.829	-1.000
380.095	1.000
380.362	0.000
380.629	-3.000
380.896	1.000
381.162	-2.000
381.429	-3.000
381.695	-2.000
381.962	-1.000
382.229	-3.000
382.495	-1.000
382.762	2.000
383.029	-1.000
383.295	-2.000
383.562	-5.000
383.828	-2.000
384.095	2.000
384.361	-2.000
384.628	-1.000
384.895	1.000
385.161	0.000
385.428	1.000
385.694	0.000
385.961	-1.000
386.227	-3.000
386.494	0.000
386.760	3.000
387.027	-2.000
387.293	-1.000
387.560	-1.000
387.826	3.000
388.092	1.000
388.359	-3.000
388.625	-1.000
388.892	-3.000
389.158	-2.000
389.425	2.000
389.691	-4.000
389.957	-5.000
390.224	0.000
390.490	1.000
390.757	3.000
391.023	1.000
391.289	-4.000
391.556	1.000
391.822	1.000
392.088	0.000
392.355	-2.000
392.621	-2.000
392.887	1.000
393.154	-2.000
393.420	5.000
393.686	-3.000
393.952	0.000
394.219	-3.000
394.485	1.000
394.751	-1.000
395.017	2.000
395.284	3.000
395.550	1.000
395.816	0.000
396.082	-2.000
396.349	1.000
396.615	-6.000
396.881	-3.000
397.147	-2.000
397.413	1.000
397.679	-3.000
397.946	-5.000
398.212	-1.000
398.478	-3.000
398.744	-2.000
399.010	-3.000
399.276	-3.000
399.542	1.000
399.808	-1.000
400.075	0.000
400.341	-3.000
400.607	-3.000
400.873	0.000
401.139	0.000
401.405	-3.000
401.671	1.000
401.937	-3.000
402.203	-6.000
402.469	3.000
402.735	0.000
403.001	-4.000
403.267	-4.000
403.533	-2.000
403.799	-2.000
404.065	-1.000
404.331	1.000
404.597	-2.000
404.863	-5.000
405.129	-3.000
405.395	-1.000
405.661	-3.000
405.927	0.000
406.192	-2.000
406.458	3.000
406.724	-1.000
406.990	2.000
407.256	-1.000
407.522	-2.000
407.788	4.000
408.054	1.000
408.319	4.000
408.585	-3.000
408.851	2.000
409.117	-4.000
409.383	1.000
409.649	0.000
409.914	1.000
410.180	-4.000
410.446	-2.000
410.712	-1.000
410.977	-2.000
411.243	0.000
411.509	-1.000
411.775	-6.000
412.040	-2.000
412.306	-1.000
412.572	2.000
412.838	-5.000
413.103	-5.000
413.369	-3.000
413.635	0.000
413.900	-4.000
414.166	-2.000
414.432	-3.000
414.697	-3.000
414.963	-2.000
415.229	-1.000
415.494	0.000
415.760	-4.000
416.025	-5.000
416.291	1.000
416.557	1.000
416.822	-3.000
417.088	2.000
417.353	-4.000
417.619	-1.000
417.884	-5.000
418.150	-2.000
418.416	-3.000
418.681	0.000
418.947	-1.000
419.212	0.000
419.478	-4.000
419.743	0.000
420.009	-6.000
420.274	0.000
420.540	1.000
420.805	-8.000
421.071	-3.000
421.336	0.000
421.601	-5.000
421.867	-1.000
422.132	-1.000
422.398	0.000
422.663	1.000
422.929	-5.000
423.194	-5.000
423.459	-5.000
423.725	-5.000
423.990	-2.000
424.256	-5.000
424.521	-3.000
424.786	-5.000
425.052	-3.000
425.317	-4.000
425.582	-5.000
425.848	-3.000
426.113	-8.000
426.378	-2.000
426.643	-1.000
426.909	-1.000
427.174	-2.000
427.439	2.000
427.705	-3.000
427.970	1.000
428.235	-3.000
428.500	-1.000
428.766	-6.000
429.031	-2.000
429.296	-3.000
429.561	-1.000
429.826	-1.000
430.092	-1.000
430.357	-8.000
430.622	-2.000
430.887	-4.000
431.152	-4.000
431.417	-7.000
431.683	-5.000
431.948	-3.000
432.213	-3.000
432.478	2.000
432.743	-4.000
433.008	-3.000
433.273	-5.000
433.538	-2.000
433.803	-1.000
434.069	0.000
434.334	-2.000
434.599	-4.000
434.864	-3.000
435.129	1.000
435.394	-4.000
435.659	-4.000
435.924	-6.000
436.189	-1.000
436.454	-7.000
436.719	-7.000
436.984	1.000
437.249	-3.000
437.514	-1.000
437.779	-3.000
438.044	-3.000
438.309	-7.000
438.574	1.000
438.838	-3.000
439.103	-3.000
439.368	-1.000
439.633	0.000
439.898	-2.000
440.163	-2.000
440.428	-1.000
440.693	1.000
440.958	-4.000
441.222	-5.000
441.487	-1.000
441.752	-2.000
442.017	-2.000
442.282	-6.000
442.547	-4.000
442.811	-1.000
443.076	-6.000
443.341	-3.000
443.606	-2.000
443.871	-1.000
444.135	-1.000
444.400	-1.000
444.665	-3.000
444.930	-1.000
445.194	-1.000
445.459	-4.000
445.724	-5.000
445.989	0.000
446.253	1.000
446.518	-4.000
446.783	-1.000
447.047	0.000
447.312	1.000
447.577	-1.000
447.841	0.000
448.106	-5.000
448.371	-6.000
448.635	-1.000
448.900	-7.000
449.165	0.000
449.429	-1.000
449.694	-5.000
449.958	-2.000
450.223	-2.000
450.488	-3.000
450.752	-2.000
451.017	-4.000
451.281	-3.000
451.546	2.000
451.810	1.000
452.075	0.000
452.339	0.000
452.604	0.000
452.868	0.000
453.133	-3.000
453.397	-3.000
453.662	-1.000
453.926	-1.000
454.191	2.000
454.455	-1.000
454.720	-1.000
454.984	1.000
455.249	-4.000
455.513	-1.000
455.778	-1.000
456.042	1.000
456.306	-6.000
456.571	-2.000
456.835	-4.000
457.100	-2.000
457.364	-6.000
457.628	-3.000
457.893	0.000
458.157	-5.000
458.421	-2.000
458.686	-8.000
458.950	-4.000
459.214	-5.000
459.479	-2.000
459.743	-1.000
460.007	-3.000
460.272	-5.000
460.536	-1.000
460.800	-1.000
461.064	-4.000
461.329	-3.000
461.593	-2.000
461.857	-6.000
462.121	-4.000
462.386	-2.000
462.650	-1.000
462.914	-4.000
463.178	-2.000
463.442	-4.000
463.707	-2.000
463.971	-6.000
464.235	-2.000
464.499	0.000
464.763	-4.000
465.027	-6.000
465.292	-3.000
465.556	-6.000
465.820	-1.000
466.084	-3.000
466.348	0.000
466.612	1.000
466.876	-4.000
467.140	-1.000
467.404	3.000
467.668	-4.000
467.933	-3.000
468.197	0.000
468.461	-2.000
468.725	-3.000
468.989	-6.000
469.253	-2.000
469.517	-4.000
469.781	-2.000
470.045	-5.000
470.309	-2.000
470.573	-6.000
470.837	-7.000
471.101	0.000
471.365	-1.000
471.629	-5.000
471.892	-4.000
472.156	4.000
472.420	0.000
472.684	-4.000
472.948	-6.000
473.212	-4.000
473.476	-3.000
473.740	-5.000
474.004	-1.000
474.268	-3.000
474.531	-4.000
474.795	-1.000
475.059	-7.000
475.323	-4.000
475.587	-2.000
475.851	-1.000
476.114	-5.000
476.378	-6.000
476.642	-7.000
476.906	-1.000
477.170	0.000
477.433	-4.000
477.697	-1.000
477.961	-5.000
478.225	-2.000
478.488	-4.000
478.752	1.000
479.016	-5.000
479.280	-1.000
479.543	-5.000
479.807	-4.000
480.071	-2.000
480.334	-4.000
480.598	-3.000
480.862	-2.000
481.125	0.000
481.389	-3.000
481.653	1.000
481.916	0.000
482.180	-3.000
482.444	-2.000
482.707	-5.000
482.971	-2.000
483.234	-6.000
483.498	-6.000
483.762	-4.000
484.025	-1.000
484.289	-1.000
484.552	5.000
484.816	-5.000
485.079	-2.000
485.343	-6.000
485.607	-2.000
485.870	-1.000
486.134	-2.000
486.397	1.000
486.661	1.000
486.924	-4.000
487.188	-3.000
487.451	-4.000
487.715	4.000
487.978	-4.000
488.241	1.000
488.505	-4.000
488.768	1.000
489.032	4.000
489.295	0.000
489.559	-3.000
489.822	-7.000
490.085	0.000
490.349	3.000
490.612	-3.000
490.876	-6.000
491.139	0.000
491.402	-1.000
491.666	-2.000
491.929	-3.000
492.192	-1.000
492.456	5.000
492.719	0.000
492.982	4.000
493.246	1.000
493.509	-4.000
493.772	1.000
494.035	1.000
494.299	-1.000
494.562	-2.000
494.825	2.000
495.088	-5.000
495.352	2.000
495.615	2.000
495.878	-2.000
496.141	2.000
496.405	-2.000
496.668	-2.000
496.931	-5.000
497.194	-2.000
497.457	-4.000
497.721	-1.000
497.984	-1.000
498.247	-3.000
498.510	-1.000
498.773	-6.000
499.036	-6.000
499.299	-3.000
499.562	-3.000
499.826	-3.000
500.089	0.000
500.352	-1.000
500.615	2.000
500.878	-1.000
501.141	-3.000
501.404	-2.000
501.667	-4.000
501.930	-1.000
502.193	-5.000
502.456	1.000
502.719	-3.000
502.982	-1.000
503.245	0.000
503.508	0.000
503.771	5.000
504.034	0.000
504.297	-1.000
504.560	-2.000
504.823	-1.000
505.086	4.000
505.349	1.000
505.612	-4.000
505.875	-2.000
506.138	2.000
506.401	1.000
506.664	1.000
506.927	1.000
507.189	1.000
507.452	-1.000
507.715	-2.000
507.978	-4.000
508.241	-1.000
508.504	-5.000
508.767	-2.000
509.029	-1.000
509.292	-1.000
509.555	-3.000
509.818	-4.000
510.081	-1.000
510.343	-3.000
510.606	-2.000
510.869	-1.000
511.132	-2.000
511.395	1.000
511.657	-2.000
511.920	0.000
512.183	4.000
512.446	0.000
512.708	2.000
512.971	3.000
513.234	2.000
513.496	-1.000
513.759	-3.000
514.022	-3.000
514.284	-2.000
514.547	-2.000
514.810	-3.000
515.072	-1.000
515.335	-3.000
515.598	-1.000
515.860	-3.000
516.123	0.000
516.386	-2.000
516.648	3.000
516.911	-3.000
517.173	-2.000
517.436	-4.000
517.698	5.000
517.961	-4.000
518.224	2.000
518.486	5.000
518.749	-2.000
519.011	0.000
519.274	2.000
519.536	2.000
519.799	-2.000
520.061	-4.000
520.324	0.000
520.586	-3.000
520.849	-2.000
521.111	-2.000
521.374	0.000
521.636	-5.000
521.899	-4.000
522.161	-1.000
522.423	-1.000
522.686	2.000
522.948	1.000
523.211	1.000
523.473	-2.000
523.736	-2.000
523.998	1.000
524.260	-2.000
524.523	-5.000
524.785	2.000
525.047	2.000
525.310	-2.000
525.572	-3.000
525.834	1.000
526.097	-1.000
526.359	-4.000
526.621	1.000
526.884	0.000
527.146	-1.000
527.408	-1.000
527.670	3.000
527.933	3.000
528.195	4.000
528.457	-1.000
528.719	-2.000
528.982	-2.000
529.244	-2.000
529.506	1.000
529.768	0.000
530.031	0.000
530.293	5.000
530.555	1.000
530.817	-2.000
531.079	1.000
531.342	1.000
531.604	0.000
531.866	0.000
532.128	-1.000
532.390	3.000
532.652	1.000
532.914	-2.000
533.176	-1.000
533.439	-4.000
533.701	-4.000
533.963	1.000
534.225	0.000
534.487	-2.000
534.749	-2.000
535.011	0.000
535.273	2.000
535.535	1.000
535.797	2.000
536.059	1.000
536.321	6.000
536.583	0.000
536.845	0.000
537.107	-2.000
537.369	-2.000
537.631	2.000
537.893	-4.000
538.155	2.000
538.417	4.000
538.679	-2.000
538.941	-1.000
539.203	-2.000
539.465	-2.000
539.727	2.000
539.989	0.000
540.251	0.000
540.512	-3.000
540.774	-1.000
541.036	-2.000
541.298	-1.000
541.560	-4.000
541.822	-1.000
542.084	-1.000
542.345	-5.000
542.607	-1.000
542.869	-1.000
543.131	5.000
543.393	-2.000
543.655	-1.000
543.916	-4.000
544.178	-1.000
544.440	2.000
544.702	0.000
544.963	-4.000
545.225	-2.000
545.487	-4.000
545.749	-4.000
546.010	-4.000
546.272	2.000
546.534	-7.000
546.795	-4.000
547.057	-6.000
547.319	2.000
547.581	1.000
547.842	-1.000
548.104	3.000
548.366	-2.000
548.627	-2.000
548.889	-1.000
549.150	0.000
549.412	2.000
549.674	3.000
549.935	-3.000
550.197	0.000
550.459	0.000
550.720	-4.000
550.982	-1.000
551.243	-3.000
551.505	1.000
551.766	2.000
552.028	0.000
552.289	-3.000
552.551	-1.000
552.813	-1.000
553.074	0.000
553.336	1.000
553.597	0.000
553.859	-2.000
554.120	-1.000
554.382	0.000
554.643	0.000
554.904	0.000
555.166	3.000
555.427	0.000
555.689	-2.000
555.950	-3.000
556.212	3.000
556.473	-1.000
556.735	-1.000
556.996	-4.000
557.257	2.000
557.519	-3.000
557.780	0.000
558.041	0.000
558.303	1.000
558.564	-1.000
558.826	-3.000
559.087	-1.000
559.348	-1.000
559.609	-1.000
559.871	0.000
560.132	-4.000
560.393	-5.000
560.655	-5.000
560.916	-1.000
561.177	-1.000
561.439	-3.000
561.700	0.000
561.961	0.000
562.222	0.000
562.484	6.000
562.745	5.000
563.006	-1.000
563.267	-1.000
563.528	-4.000
563.790	-4.000
564.051	-3.000
564.312	1.000
564.573	0.000
564.834	-1.000
565.095	1.000
565.357	2.000
565.618	-1.000
565.879	-4.000
566.140	-4.000
566.401	-2.000
566.662	0.000
566.923	2.000
567.184	2.000
567.446	-4.000
567.707	0.000
567.968	-3.000
568.229	-2.000
568.490	0.000
568.751	-2.000
569.012	-2.000
569.273	-3.000
569.534	-3.000
569.795	-1.000
570.056	-2.000
570.317	-7.000
570.578	-5.000
570.839	-1.000
571.100	2.000
571.361	0.000
571.622	-1.000
571.883	0.000
572.144	-2.000
572.405	0.000
572.666	-1.000
572.927	-3.000
573.188	-1.000
573.449	-3.000
573.709	-4.000
573.970	-6.000
574.231	-4.000
574.492	0.000
574.753	-2.000
575.014	2.000
575.275	0.000
575.536	0.000
575.796	0.000
576.057	1.000
576.318	-3.000
576.579	2.000
576.840	-1.000
577.100	0.000
577.361	-3.000
577.622	-1.000
577.883	-4.000
578.144	0.000
578.404	0.000
578.665	-1.000
578.926	0.000
579.187	2.000
579.447	-2.000
579.708	-1.000
579.969	-2.000
580.229	-4.000
580.490	-3.000
580.751	-1.000
581.012	1.000
581.272	-5.000
581.533	1.000
581.794	-1.000
582.054	-4.000
582.315	-6.000
582.576	-1.000
582.836	-3.000
583.097	3.000
583.357	-4.000
583.618	2.000
583.879	1.000
584.139	3.000
584.400	-1.000
584.660	4.000
584.921	-1.000
585.181	0.000
585.442	-4.000
585.703	1.000
585.963	2.000
586.224	-2.000
586.484	2.000
586.745	-4.000
587.005	-5.000
587.266	-1.000
587.526	-2.000
587.787	-1.000
588.047	-2.000
588.308	-7.000
588.568	-5.000
588.829	-3.000
589.089	-3.000
589.349	3.000
589.610	-3.000
589.870	-2.000
590.131	0.000
590.391	2.000
590.651	2.000
590.912	0.000
591.172	-7.000
591.433	2.000
591.693	0.000
591.953	-3.000
592.214	0.000
592.474	1.000
592.734	-2.000
592.995	-1.000
593.255	1.000
593.515	-5.000
593.776	-4.000
594.036	-3.000
594.296	-2.000
594.557	-2.000
594.817	0.000
595.077	1.000
595.337	-4.000
595.598	1.000
595.858	-2.000
596.118	2.000
596.378	-4.000
596.639	-2.000
596.899	-2.000
597.159	-12.000
597.419	-2.000
597.679	-5.000
597.939	-7.000
598.200	-5.000
598.460	-8.000
598.720	-7.000
598.980	-3.000
599.240	-3.000
599.500	-5.000
599.761	-6.000
600.021	-4.000
600.281	0.000
600.541	-3.000
600.801	-3.000
601.061	1.000
601.321	-6.000
601.581	-1.000
601.841	-5.000
602.101	-3.000
602.361	0.000
602.621	-1.000
602.881	-2.000
603.142	-4.000
603.402	-5.000
603.662	-4.000
603.922	-1.000
604.182	-5.000
604.442	-6.000
604.702	0.000
604.961	-2.000
605.221	-6.000
605.481	1.000
605.741	-1.000
606.001	-1.000
606.261	-1.000
606.521	-6.000
606.781	0.000
607.041	-3.000
607.301	-2.000
607.561	-9.000
607.821	-3.000
608.081	-3.000
608.340	-2.000
608.600	-3.000
608.860	0.000
609.120	-2.000
609.380	-3.000
609.640	-7.000
609.899	-1.000
610.159	-4.000
610.419	-4.000
610.679	2.000
610.939	-5.000
611.199	-2.000
611.458	-1.000
611.718	-4.000
611.978	-6.000
612.238	-3.000
612.497	-2.000
612.757	-3.000
613.017	-4.000
613.277	-4.000
613.536	-2.000
613.796	-3.000
614.056	0.000
614.315	-3.000
614.575	-6.000
614.835	-3.000
615.094	-6.000
615.354	-2.000
615.614	0.000
615.873	-4.000
616.133	-1.000
616.393	-6.000
616.652	-4.000
616.912	-5.000
617.171	-5.000
617.431	-6.000
617.691	-2.000
617.950	-2.000
618.210	-2.000
618.469	-5.000
618.729	-6.000
618.989	-7.000
619.248	-1.000
619.508	-1.000
619.767	0.000
620.027	-4.000
620.286	-3.000
620.546	-2.000
620.805	-4.000
621.065	-4.000
621.324	-2.000
621.584	-6.000
621.843	0.000
622.103	-1.000
622.362	-1.000
622.622	-3.000
622.881	-5.000
623.140	-6.000
623.400	-6.000
623.659	-4.000
623.919	-6.000
624.178	-3.000
624.437	-3.000
624.697	-3.000
624.956	-4.000
625.216	0.000
625.475	0.000
625.734	0.000
625.994	1.000
626.253	-3.000
626.512	-3.000
626.772	-1.000
627.031	-3.000
627.290	0.000
627.550	-4.000
627.809	-1.000
628.068	-2.000
628.327	-6.000
628.587	-4.000
628.846	-3.000
629.105	-1.000
629.364	-2.000
629.624	-4.000
629.883	-7.000
630.142	-3.000
630.401	0.000
630.661	-2.000
630.920	-2.000
631.179	-3.000
631.438	-2.000
631.697	0.000
631.957	-6.000
632.216	5.000
632.475	-4.000
632.734	-3.000
632.993	-5.000
633.252	-4.000
633.511	-1.000
633.770	-4.000
634.030	0.000
634.289	-4.000
634.548	-6.000
634.807	-7.000
635.066	-4.000
635.325	-1.000
635.584	-4.000
635.843	-6.000
636.102	-3.000
636.361	0.000
636.620	-1.000
636.879	-2.000
637.138	-2.000
637.397	-1.000
637.656	-1.000
637.915	1.000
638.174	1.000
638.433	-5.000
638.692	1.000
638.951	-1.000
639.210	-3.000
639.469	-3.000
639.728	0.000
639.987	-6.000
640.246	-3.000
640.505	-4.000
640.764	0.000
641.023	-2.000
641.282	-4.000
641.540	-6.000
641.799	-2.000
642.058	-3.000
642.317	0.000
642.576	-4.000
642.835	-3.000
643.094	-4.000
643.352	-2.000
643.611	-5.000
643.870	-4.000
644.129	-6.000
644.388	-5.000
644.646	-4.000
644.905	-3.000
645.164	-4.000
645.423	-2.000
645.682	-5.000
645.940	-2.000
646.199	-1.000
646.458	-3.000
646.716	-4.000
646.975	-2.000
647.234	-3.000
647.493	-8.000
647.751	-6.000
648.010	-6.000
648.269	-1.000
648.527	-1.000
648.786	-3.000
649.045	0.000
649.303	-8.000
649.562	-5.000
649.821	-1.000
650.079	-1.000
650.338	2.000
650.597	2.000
650.855	-5.000
651.114	-5.000
651.372	-2.000
651.631	-1.000
651.890	-2.000
652.148	-1.000
652.407	-6.000
652.665	-3.000
652.924	-7.000
653.182	-4.000
653.441	-1.000
653.699	1.000
653.958	-6.000
654.216	-5.000
654.475	-3.000
654.733	-3.000
654.992	-2.000
655.250	0.000
655.509	3.000
655.767	0.000
656.026	-3.000
656.284	-5.000
656.543	-4.000
656.801	-2.000
657.059	-6.000
657.318	-2.000
657.576	2.000
657.835	0.000
658.093	0.000
658.351	1.000
658.610	-4.000
658.868	-2.000
659.127	-1.000
659.385	-2.000
659.643	3.000
659.902	-3.000
660.160	-3.000
660.418	-1.000
660.677	0.000
660.935	-3.000
661.193	0.000
661.452	0.000
661.710	0.000
661.968	0.000
662.226	-2.000
662.485	-3.000
662.743	3.000
663.001	-3.000
663.259	-3.000
663.518	0.000
663.776	-2.000
664.034	-3.000
664.292	0.000
664.550	-3.000
664.809	-5.000
665.067	-2.000
665.325	-2.000
665.583	2.000
665.841	0.000
666.099	-1.000
666.358	-3.000
666.616	-4.000
666.874	0.000
667.132	-3.000
667.390	-2.000
667.648	2.000
667.906	-1.000
668.164	-5.000
668.423	-2.000
668.681	-6.000
668.939	-1.000
669.197	-6.000
669.455	-1.000
669.713	-1.000
669.971	1.000
670.229	2.000
670.487	-2.000
670.745	2.000
671.003	4.000
671.261	-6.000
671.519	-5.000
671.777	-6.000
672.035	-1.000
672.293	-1.000
672.551	-5.000
672.809	-6.000
673.067	-4.000
673.325	-7.000
673.583	-3.000
673.841	-1.000
674.099	-3.000
674.356	5.000
674.614	-4.000
674.872	-1.000
675.130	1.000
675.388	0.000
675.646	-2.000
675.904	0.000
676.162	-2.000
676.419	-2.000
676.677	1.000
676.935	1.000
677.193	-2.000
677.451	-3.000
677.709	-6.000
677.966	0.000
678.224	-4.000
678.482	-2.000
678.740	3.000
678.998	5.000
679.255	-2.000
679.513	1.000
679.771	-5.000
680.029	0.000
680.286	-4.000
680.544	-4.000
680.802	-1.000
681.059	-4.000
681.317	0.000
681.575	3.000
681.833	-2.000
682.090	0.000
682.348	-2.000
682.606	-2.000
682.863	0.000
683.121	0.000
683.379	-1.000
683.636	1.000
683.894	0.000
684.151	2.000
684.409	1.000
684.667	-1.000
684.924	-2.000
685.182	2.000
685.439	-3.000
685.697	-4.000
685.955	0.000
686.212	-4.000
686.470	-5.000
686.727	-5.000
686.985	0.000
687.242	-1.000
687.500	-1.000
687.757	-1.000
688.015	-8.000
688.272	-1.000
688.530	-3.000
688.787	-1.000
689.045	-4.000
689.302	-5.000
689.560	-3.000
689.817	1.000
690.075	-1.000
690.332	-1.000
690.589	3.000
690.847	-2.000
691.104	-2.000
691.362	-5.000
691.619	-4.000
691.876	2.000
692.134	-5.000
692.391	-2.000
692.649	4.000
692.906	-1.000
693.163	-1.000
693.421	-8.000
693.678	0.000
693.935	-4.000
694.193	-2.000
694.450	-4.000
694.707	-1.000
694.965	0.000
695.222	-4.000
695.479	1.000
695.736	-4.000
695.994	-7.000
696.251	9.000
696.508	108.000
696.765	112.000
697.023	41.000
697.280	3.000
697.537	-5.000
697.794	-3.000
698.052	-6.000
698.309	-2.000
698.566	-1.000
698.823	-1.000
699.080	-5.000
699.338	-3.000
699.595	-1.000
699.852	-6.000
700.109	-3.000
700.366	1.000
700.623	-3.000
700.880	-3.000
701.137	-1.000
701.395	-7.000
701.652	-2.000
701.909	-2.000
702.166	1.000
702.423	0.000
702.680	-4.000
702.937	-2.000
703.194	-2.000
703.451	-1.000
703.708	-3.000
703.965	-3.000
704.222	-1.000
704.479	-2.000
704.736	-4.000
704.993	-5.000
705.250	-3.000
705.507	-3.000
705.764	-2.000
706.021	-3.000
706.278	-3.000
706.535	1.000
706.792	78.000
707.049	64.000
707.306	21.000
707.563	-4.000
707.820	-5.000
708.077	-3.000
708.334	-2.000
708.591	4.000
708.847	1.000
709.104	2.000
709.361	3.000
709.618	-2.000
709.875	-4.000
710.132	-6.000
710.389	-3.000
710.645	-6.000
710.902	-9.000
711.159	-2.000
711.416	-8.000
711.673	-6.000
711.930	-5.000
712.186	-4.000
712.443	-2.000
712.700	-1.000
712.957	3.000
713.213	-4.000
713.470	1.000
713.727	-2.000
713.984	-4.000
714.240	-2.000
714.497	-4.000
714.754	-6.000
715.011	-10.000
715.267	-5.000
715.524	-7.000
715.781	-3.000
716.037	-2.000
716.294	1.000
716.551	0.000
716.807	2.000
717.064	4.000
717.321	0.000
717.577	1.000
717.834	-3.000
718.090	-1.000
718.347	3.000
718.604	-1.000
718.860	-3.000
719.117	-3.000
719.373	1.000
719.630	-1.000
719.886	-1.000
720.143	-4.000
720.400	-2.000
720.656	2.000
720.913	-1.000
721.169	1.000
721.426	2.000
721.682	1.000
721.939	0.000
722.195	-2.000
722.452	-3.000
722.708	-1.000
722.965	2.000
723.221	-1.000
723.478	-2.000
723.734	-2.000
723.990	3.000
724.247	-5.000
724.503	-2.000
724.760	-2.000
725.016	-1.000
725.273	0.000
725.529	2.000
725.785	-1.000
726.042	-1.000
726.298	0.000
726.554	3.000
726.811	-2.000
727.067	-8.000
727.323	-2.000
727.580	4.000
727.836	-4.000
728.092	-5.000
728.349	-5.000
728.605	-4.000
728.861	-1.000
729.118	0.000
729.374	2.000
729.630	-4.000
729.886	2.000
730.143	1.000
730.399	0.000
730.655	0.000
730.911	-3.000
731.168	-2.000
731.424	-4.000
731.680	-1.000
731.936	-2.000
732.193	0.000
732.449	-5.000
732.705	-3.000
732.961	-6.000
733.217	-4.000
733.473	-5.000
733.730	-6.000
733.986	3.000
734.242	-1.000
734.498	-2.000
734.754	-6.000
735.010	-5.000
735.266	-1.000
735.522	-3.000
735.778	-2.000
736.035	0.000
736.291	-2.000
736.547	-1.000
736.803	-2.000
737.059	-8.000
737.315	-4.000
737.571	-6.000
737.827	-10.000
738.083	-9.000
738.339	101.000
738.595	147.000
738.851	82.000
739.107	20.000
739.363	-7.000
739.619	-9.000
739.875	-6.000
740.131	0.000
740.387	-1.000
740.643	-2.000
740.899	-2.000
741.155	0.000
741.411	-1.000
741.666	-5.000
741.922	-2.000
742.178	0.000
742.434	0.000
742.690	0.000
742.946	-4.000
743.202	4.000
743.458	-3.000
743.714	-1.000
743.969	-5.000
744.225	3.000
744.481	-6.000
744.737	0.000
744.993	-3.000
745.249	-1.000
745.504	0.000
745.760	1.000
746.016	-4.000
746.272	-1.000
746.527	-2.000
746.783	-4.000
747.039	-2.000
747.295	-5.000
747.550	-2.000
747.806	0.000
748.062	-8.000
748.318	-1.000
748.573	-5.000
748.829	0.000
749.085	-4.000
749.340	-3.000
749.596	-6.000
749.852	-9.000
750.108	31.000
750.363	133.000
750.619	181.000
750.874	129.000
751.130	98.000
751.386	141.000
751.641	187.000
751.897	130.000
752.153	48.000
752.408	17.000
752.664	-4.000
752.919	-4.000
753.175	1.000
753.430	-6.000
753.686	-3.000
753.942	1.000
754.197	-7.000
754.453	2.000
754.708	-1.000
754.964	-1.000
755.219	-3.000
755.475	-2.000
755.730	-5.000
755.986	-2.000
756.241	-4.000
756.497	1.000
756.752	-4.000
757.008	-1.000
757.263	2.000
757.519	-1.000
757.774	-3.000
758.029	2.000
758.285	-4.000
758.540	-1.000
758.796	-5.000
759.051	1.000
759.307	-4.000
759.562	-1.000
759.817	-4.000
760.073	-2.000
760.328	-1.000
760.583	-4.000
760.839	-2.000
761.094	-4.000
761.349	-3.000
761.605	-5.000
761.860	-4.000
762.115	2.000
762.371	-4.000
762.626	-9.000
762.881	-5.000
763.137	83.000
763.392	325.000
763.647	603.000
763.902	566.000
764.158	314.000
764.413	132.000
764.668	42.000
764.923	19.000
765.179	3.000
765.434	-7.000
765.689	-5.000
765.944	-10.000
766.199	-9.000
766.455	-1.000
766.710	-4.000
766.965	1.000
767.220	-1.000
767.475	-2.000
767.730	-2.000
767.985	-1.000
768.241	-3.000
768.496	-6.000
768.751	-3.000
769.006	-4.000
769.261	-7.000
769.516	-4.000
769.771	-1.000
770.026	-3.000
770.281	-3.000
770.536	-8.000
770.791	-3.000
771.047	1.000
771.302	-4.000
771.557	-3.000
771.812	-9.000
772.067	2.000
772.322	94.000
772.577	210.000
772.832	196.000
773.087	92.000
773.342	31.000
773.597	-1.000
773.852	-5.000
774.107	-7.000
774.361	-7.000
774.616	-2.000
774.871	-3.000
775.126	-1.000
775.381	3.000
775.636	-1.000
775.891	-2.000
776.146	-7.000
776.401	1.000
776.656	-2.000
776.911	0.000
777.165	-5.000
777.420	2.000
777.675	0.000
777.930	-1.000
778.185	-3.000
778.440	1.000
778.694	1.000
778.949	1.000
779.204	-2.000
779.459	-6.000
779.714	-4.000
779.968	-4.000
780.223	-6.000
780.478	-2.000
780.733	-1.000
780.988	-2.000
781.242	-4.000
781.497	-1.000
781.752	0.000
782.006	-3.000
782.261	-5.000
782.516	-4.000
782.771	4.000
783.025	-6.000
783.280	-3.000
783.535	-4.000
783.789	-6.000
784.044	-4.000
784.299	-2.000
784.553	-6.000
784.808	3.000
785.063	4.000
785.317	0.000
785.572	1.000
785.826	-3.000
786.081	-2.000
786.336	-3.000
786.590	-5.000
786.845	0.000
787.099	2.000
787.354	-1.000
787.609	0.000
787.863	-2.000
788.118	-4.000
788.372	-3.000
788.627	-1.000
788.881	0.000
789.136	-2.000
789.390	-6.000
789.645	-3.000
789.899	-1.000
790.154	-3.000
790.408	-7.000
790.663	-2.000
790.917	-1.000
791.172	-2.000
791.426	-1.000
791.680	-8.000
791.935	-7.000
792.189	-6.000
792.444	-6.000
792.698	1.000
792.953	-2.000
793.207	-7.000
793.461	-3.000
793.716	-3.000
793.970	-1.000
794.224	-5.000
794.479	-7.000
794.733	33.000
794.987	132.000
795.242	156.000
795.496	89.000
795.750	33.000
796.005	2.000
796.259	-4.000
796.513	-11.000
796.768	-2.000
797.022	-1.000
797.276	-4.000
797.530	0.000
797.785	-5.000
798.039	-5.000
798.293	-3.000
798.547	-2.000
798.802	-1.000
799.056	1.000
799.310	2.000
799.564	2.000
799.819	-3.000
800.073	3.000
800.327	-6.000
800.581	-1.000
800.835	71.000
801.089	108.000
801.344	102.000
801.598	170.000
801.852	225.000
802.106	158.000
802.360	74.000
802.614	19.000
802.868	-5.000
803.122	-5.000
803.377	-8.000
803.631	-5.000
803.885	-2.000
804.139	-1.000
804.393	-2.000
804.647	-7.000
804.901	-5.000
805.155	-10.000
805.409	-2.000
805.663	-7.000
805.917	-4.000
806.171	-5.000
806.425	-6.000
806.679	-2.000
806.933	-7.000
807.187	-6.000
807.441	-5.000
807.695	-7.000
807.949	-4.000
808.203	1.000
808.457	-4.000
808.711	2.000
808.965	-1.000
809.219	-4.000
809.473	-3.000
809.726	-4.000
809.980	-9.000
810.234	14.000
810.488	116.000
810.742	192.000
810.996	177.000
811.250	158.000
811.504	262.000
811.757	516.000
812.011	595.000
812.265	388.000
812.519	190.000
812.773	84.000
813.027	29.000
813.280	-4.000
813.534	-9.000
813.788	-4.000
814.042	-8.000
814.295	-4.000
814.549	-5.000
814.803	-3.000
815.057	-6.000
815.310	-3.000
815.564	-2.000
815.818	-1.000
816.072	-7.000
816.325	-3.000
816.579	-4.000
816.833	1.000
817.086	-5.000
817.340	-2.000
817.594	-5.000
817.848	-3.000
818.101	-2.000
818.355	-4.000
818.608	-3.000
818.862	-1.000
819.116	1.000
819.369	-2.000
819.623	-3.000
819.877	-7.000
820.130	-7.000
820.384	-3.000
820.637	-6.000
820.891	-2.000
821.144	0.000
821.398	1.000
821.652	-1.000
821.905	1.000
822.159	-1.000
822.412	-4.000
822.666	-4.000
822.919	0.000
823.173	-1.000
823.426	-1.000
823.680	-2.000
823.933	0.000
824.187	-2.000
824.440	-1.000
824.694	-7.000
824.947	-9.000
825.201	-3.000
825.454	2.000
825.707	-2.000
825.961	-3.000
826.214	-10.000
826.468	-7.000
826.721	67.000
826.975	100.000
827.228	53.000
827.481	20.000
827.735	1.000
827.988	-11.000
828.241	-4.000
828.495	-7.000
828.748	-2.000
829.001	-6.000
829.255	-5.000
829.508	-2.000
829.761	-3.000
830.015	-3.000
830.268	-1.000
830.521	1.000
830.775	-2.000
831.028	-3.000
831.281	-10.000
831.534	-6.000
831.788	-3.000
832.041	-5.000
832.294	-7.000
832.547	-6.000
832.801	-6.000
833.054	-1.000
833.307	-4.000
833.560	-6.000
833.813	1.000
834.067	2.000
834.320	-5.000
834.573	-2.000
834.826	-1.000
835.079	-3.000
835.332	1.000
835.586	0.000
835.839	-3.000
836.092	0.000
836.345	-3.000
836.598	1.000
836.851	-1.000
837.104	-6.000
837.357	-6.000
837.611	-4.000
837.864	-4.000
838.117	-1.000
838.370	-8.000
838.623	-10.000
838.876	0.000
839.129	-6.000
839.382	-2.000
839.635	-3.000
839.888	2.000
840.141	1.000
840.394	-1.000
840.647	-1.000
840.900	2.000
841.153	94.000
841.406	142.000
841.659	97.000
841.912	45.000
842.165	24.000
842.418	31.000
842.671	117.000
842.924	224.000
843.176	209.000
843.429	117.000
843.682	46.000
843.935	4.000
844.188	-3.000
844.441	-10.000
844.694	-4.000
844.947	-2.000
845.200	-3.000
845.452	-4.000
845.705	0.000
845.958	-1.000
846.211	0.000
846.464	-3.000
846.717	-3.000
846.969	0.000
847.222	-1.000
847.475	0.000
847.728	1.000
847.981	0.000
848.233	-2.000
848.486	1.000
848.739	3.000
848.992	-3.000
849.244	-1.000
849.497	-4.000
849.750	-2.000
850.003	-3.000
850.255	-4.000
850.508	1.000
850.761	1.000
851.013	0.000
851.266	1.000
851.519	-6.000
851.771	-3.000
852.024	-1.000
852.277	-16.000
852.529	35.000
852.782	52.000
853.035	36.000
853.287	4.000
853.540	-3.000
853.792	-7.000
854.045	-2.000
854.298	-4.000
854.550	0.000
854.803	0.000
855.055	-4.000
855.308	0.000
855.560	0.000
855.813	0.000
856.066	-1.000
856.318	-2.000
856.571	-4.000
856.823	-7.000
857.076	2.000
857.328	-2.000
857.581	0.000
857.833	-4.000
858.086	0.000
858.338	-4.000
858.591	3.000
858.843	-1.000
859.095	-1.000
859.348	0.000
859.600	1.000
859.853	-1.000
860.105	2.000
860.358	1.000
860.610	0.000
860.862	-1.000
861.115	0.000
861.367	-6.000
861.620	2.000
861.872	1.000
862.124	0.000
862.377	-5.000
862.629	1.000
862.881	-3.000
863.134	-1.000
863.386	0.000
863.638	-2.000
863.891	-3.000
864.143	-4.000
864.395	-2.000
864.648	-2.000
864.900	-7.000
865.152	-1.000
865.404	-1.000
865.657	-3.000
865.909	-2.000
866.161	-4.000
866.413	1.000
866.666	-2.000
866.918	-3.000
867.170	-2.000
867.422	-4.000
867.674	-5.000
867.927	-6.000
868.179	-4.000
868.431	1.000
868.683	1.000
868.935	2.000
869.187	0.000
869.440	2.000
869.692	1.000
869.944	-1.000
870.196	0.000
870.448	-3.000
870.700	-4.000
870.952	-2.000
871.204	1.000
871.457	-1.000
871.709	-3.000
871.961	-3.000
872.213	-2.000
872.465	2.000
872.717	-2.000
872.969	3.000
873.221	2.000
873.473	-4.000
873.725	-6.000
873.977	-3.000
874.229	-4.000
874.481	-5.000
874.733	-3.000
874.985	-2.000
875.237	-2.000
875.489	0.000
875.741	0.000
875.993	-6.000
876.245	-6.000
876.497	-4.000
876.749	-2.000
877.001	-3.000
877.253	-5.000
877.504	0.000
877.756	0.000
878.008	-3.000
878.260	1.000
878.512	-3.000
878.764	-4.000
879.016	1.000
879.268	-2.000
879.519	2.000
879.771	2.000
880.023	3.000
880.275	-1.000
880.527	0.000
880.779	-4.000
881.030	-3.000
881.282	-6.000
881.534	-4.000
881.786	-1.000
882.038	-3.000
882.289	2.000
882.541	-3.000
882.793	0.000
883.045	-1.000
883.296	-1.000
883.548	-3.000
883.800	3.000
884.052	2.000
884.303	-3.000
884.555	-1.000
884.807	-1.000
885.058	-3.000
885.310	3.000
885.562	-3.000
885.813	-7.000
886.065	-2.000
886.317	1.000
886.568	4.000
886.820	1.000
887.072	-5.000
887.323	-3.000
887.575	0.000
887.826	3.000
888.078	1.000
888.330	1.000
888.581	0.000
888.833	2.000
889.084	4.000
889.336	-1.000
889.587	0.000
889.839	1.000
890.091	-3.000
890.342	0.000
890.594	3.000
890.845	-1.000
891.097	4.000
891.348	0.000
891.600	-2.000
891.851	3.000
892.103	3.000
892.354	1.000
892.606	1.000
892.857	5.000
893.108	-3.000
893.360	3.000
893.611	1.000
893.863	-1.000
894.114	-1.000
894.366	1.000
894.617	-4.000
894.868	-3.000
895.120	-5.000
895.371	-1.000
895.623	-1.000
895.874	-3.000
896.125	0.000
896.377	1.000
896.628	-2.000
896.879	-4.000
897.131	3.000
897.382	5.000
897.633	-1.000
897.885	1.000
898.136	1.000
898.387	-2.000
898.639	-2.000
898.890	-5.000
899.141	-2.000
899.392	0.000
899.644	2.000
899.895	0.000
900.146	-2.000
900.397	1.000
900.649	-7.000
900.900	-1.000
901.151	-2.000
901.402	-6.000
901.653	-1.000
901.905	-3.000
902.156	-2.000
902.407	1.000
902.658	-2.000
902.909	1.000
903.160	-1.000
903.412	1.000
903.663	-4.000
903.914	-1.000
904.165	0.000
904.416	-3.000
904.667	0.000
904.918	-4.000
905.169	0.000
905.421	0.000
905.672	-2.000
905.923	1.000
906.174	1.000
906.425	0.000
906.676	0.000
906.927	-1.000
907.178	0.000
907.429	-5.000
907.680	-5.000
907.931	-1.000
908.182	-4.000
908.433	-1.000
908.684	5.000
908.935	2.000
909.186	5.000
909.437	0.000
909.688	0.000
909.939	-4.000
910.190	-3.000
910.441	0.000
910.692	-2.000
910.943	-3.000
911.194	-4.000
911.445	0.000
911.695	0.000
911.946	-5.000
912.197	-5.000
912.448	-3.000
912.699	-5.000
912.950	50.000
913.201	128.000
913.452	118.000
913.702	56.000
913.953	21.000
914.204	2.000
914.455	-2.000
914.706	-7.000
914.957	-3.000
915.207	-4.000
915.458	-9.000
915.709	-5.000
915.960	1.000
916.210	-1.000
916.461	2.000
916.712	-2.000
916.963	-4.000
917.213	2.000
917.464	-5.000
917.715	2.000
917.966	0.000
918.216	1.000
918.467	-5.000
918.718	-6.000
918.969	-3.000
919.219	0.000
919.470	-4.000
919.721	0.000
919.971	-2.000
920.222	3.000
920.473	-3.000
920.723	2.000
920.974	1.000
921.224	-1.000
921.475	1.000
921.726	0.000
921.976	-1.000
922.227	1.000
922.477	-1.000
922.728	-3.000
922.979	0.000
923.229	-4.000
923.480	-4.000
923.730	-3.000
923.981	-10.000
924.231	-8.000
924.482	-2.000
924.732	-4.000
924.983	0.000
925.233	-4.000
925.484	0.000
925.734	-3.000
925.985	0.000
926.235	-4.000
926.486	1.000
926.736	-3.000
926.987	-1.000
927.237	-3.000
927.488	-4.000
927.738	-3.000
927.989	0.000
928.239	-2.000
928.489	-2.000
928.740	-5.000
928.990	-3.000
929.241	-3.000
929.491	-2.000
929.741	-5.000
929.992	-3.000
930.242	0.000
930.492	-2.000
930.743	-2.000
930.993	-1.000
931.243	-3.000
931.494	-1.000
931.744	-2.000
931.994	-6.000
932.245	-5.000
932.495	0.000
932.745	-8.000
932.996	-1.000
933.246	-1.000
933.496	-2.000
933.746	1.000
933.997	-1.000
934.247	-3.000
934.497	-3.000
934.747	-3.000
934.998	-2.000
935.248	-2.000
935.498	0.000
935.748	-6.000
935.998	1.000
936.249	-7.000
936.499	-6.000
936.749	-6.000
936.999	-9.000
937.249	-2.000
937.499	-2.000
937.750	-6.000
938.000	-8.000
938.250	-4.000
938.500	0.000
938.750	2.000
939.000	-2.000
939.250	1.000
939.500	-1.000
939.750	0.000
940.000	-1.000
940.251	-1.000
940.501	-2.000
940.751	-3.000
941.001	-1.000
941.251	-5.000
941.501	-6.000
941.751	-2.000
942.001	-4.000
942.251	-1.000
942.501	-2.000
942.751	-4.000
943.001	-1.000
943.251	-3.000
943.501	-5.000
943.751	-2.000
944.001	-2.000
944.251	-2.000
944.501	-3.000
944.751	-2.000
945.000	2.000
945.250	-6.000
945.500	-3.000
945.750	-5.000
946.000	-4.000
946.250	-3.000
946.500	-4.000
946.750	0.000
947.000	-5.000
947.249	2.000
947.499	-1.000
947.749	-6.000
947.999	-6.000
948.249	-2.000
948.499	-3.000
948.749	-2.000
948.998	-1.000
949.248	0.000
949.498	-1.000
949.748	-3.000
949.997	-2.000
950.247	-3.000
950.497	-4.000
950.747	-1.000
950.997	0.000
951.246	-3.000
951.496	0.000
951.746	-2.000
951.995	-3.000
952.245	-4.000
952.495	-3.000
952.745	-3.000
952.994	-8.000
953.244	-1.000
953.494	3.000
953.743	-3.000
953.993	-6.000
954.243	-4.000
954.492	-2.000
954.742	-1.000
954.992	-5.000
955.241	-2.000
955.491	-3.000
955.740	-4.000
955.990	-4.000
956.240	-5.000
956.489	-3.000
956.739	-5.000
956.988	-2.000
957.238	-4.000
957.488	-5.000
957.737	-2.000
957.987	-3.000
958.236	-3.000
958.486	-3.000
958.735	-7.000
958.985	0.000
959.234	1.000
959.484	-8.000
959.733	-6.000
959.983	-3.000
960.232	-5.000
960.482	1.000
960.731	-4.000
960.981	-7.000
961.230	-3.000
961.480	-1.000
961.729	-2.000
961.978	-4.000
962.228	-5.000
962.477	-1.000
962.727	-2.000
962.976	0.000
963.226	-1.000
963.475	0.000
963.724	-2.000
963.974	-3.000
964.223	-3.000
964.472	1.000
964.722	-3.000
964.971	-4.000
965.220	-2.000
965.470	-1.000
965.719	0.000
965.968	-4.000
966.218	-4.000
966.467	-2.000
966.716	-3.000
966.966	-7.000
967.215	-10.000
967.464	-8.000
967.713	-7.000
967.963	-8.000
968.212	-7.000
968.461	-5.000
968.710	-5.000
968.960	-5.000
969.209	-1.000
969.458	-2.000
969.707	-5.000
969.956	-3.000
970.206	-3.000
970.455	-2.000
970.704	-1.000
970.953	-2.000
971.202	-4.000
971.451	-3.000
971.701	-5.000
971.950	-1.000
972.199	-2.000
972.448	-2.000
972.697	0.000
972.946	0.000
973.195	-4.000
973.444	2.000
973.694	-6.000
973.943	-5.000
974.192	-2.000
974.441	-4.000
974.690	-2.000
974.939	-2.000
975.188	-3.000
975.437	-1.000
975.686	-3.000
975.935	-4.000
976.184	-3.000
976.433	-5.000
976.682	-6.000
976.931	1.000
977.180	-7.000
977.429	0.000
977.678	-2.000
977.927	-3.000
978.176	-2.000
978.425	-6.000
978.674	-4.000
978.923	-2.000
979.172	-5.000
979.421	-3.000
979.670	-7.000
979.918	-6.000
980.167	3.000
980.416	-2.000
980.665	-6.000
980.914	-3.000
981.163	0.000
981.412	-5.000
981.661	-5.000
981.909	-1.000
982.158	-6.000
982.407	0.000
982.656	-7.000
982.905	0.000
983.154	-3.000
983.402	-4.000
983.651	-4.000
983.900	-5.000
984.149	-8.000
984.398	-6.000
984.646	-5.000
984.895	-5.000
985.144	-6.000
985.393	-4.000
985.641	-5.000
985.890	-3.000
986.139	-4.000
986.387	-1.000
986.636	-3.000
986.885	0.000
987.134	-6.000
987.382	-5.000
987.631	2.000
987.880	-2.000
988.128	1.000
988.377	-2.000
988.626	0.000
988.874	-3.000
989.123	-4.000
989.372	-1.000
989.620	-5.000
989.869	-1.000
990.117	-3.000
990.366	0.000
990.615	-2.000
990.863	0.000
991.112	-2.000
991.360	0.000
991.609	0.000
991.857	0.000
992.106	-5.000
992.355	-3.000
992.603	-3.000
992.852	-1.000
993.100	-4.000
993.349	-5.000
993.597	-2.000
993.846	-3.000
994.094	-4.000
994.343	-2.000
994.591	0.000
994.840	-2.000
995.088	-3.000
995.336	-1.000
995.585	-2.000
995.833	-4.000
996.082	-3.000
996.330	-6.000
996.579	0.000
996.827	-8.000
997.075	-3.000
997.324	-6.000
997.572	5.000
997.821	-4.000
998.069	0.000
998.317	-4.000
998.566	-2.000
998.814	-4.000
999.062	-3.000
999.311	-7.000
999.559	-7.000
999.807	-3.000
1000.056	-6.000
1000.304	-2.000
1000.552	-6.000
1000.801	-3.000
1001.049	-4.000
1001.297	-7.000
1001.546	-1.000
1001.794	0.000
1002.042	-2.000
1002.290	-1.000
1002.539	-3.000
1002.787	-2.000
1003.035	1.000
1003.283	-4.000
1003.531	-2.000
1003.780	-7.000
1004.028	-1.000
1004.276	-5.000
1004.524	-5.000
1004.772	0.000
1005.021	-2.000
1005.269	-2.000
1005.517	-5.000
1005.765	-4.000
1006.013	-4.000
1006.261	-7.000
1006.509	3.000
1006.758	-1.000
1007.006	-3.000
1007.254	-3.000
1007.502	-1.000
1007.750	-6.000
1007.998	-3.000
1008.246	3.000
1008.494	-4.000
1008.742	-6.000
1008.990	-2.000
1009.238	-2.000
1009.486	0.000
1009.735	0.000
1009.983	-2.000
1010.231	-3.000
1010.479	-5.000
1010.727	-4.000
1010.975	0.000
1011.223	4.000
1011.471	3.000
1011.719	-5.000
1011.967	-1.000
1012.214	2.000
1012.462	-1.000
1012.710	-1.000
1012.958	-4.000
1013.206	2.000
1013.454	2.000
1013.702	-3.000
1013.950	-4.000
1014.198	-4.000
1014.446	-4.000
1014.694	-6.000
1014.942	-2.000
1015.189	0.000
1015.437	-2.000
1015.685	-1.000
1015.933	-3.000
1016.181	-2.000
1016.429	-5.000
1016.677	-4.000
1016.924	-2.000
1017.172	-3.000
1017.420	-5.000
1017.668	-2.000
1017.916	-3.000
1018.163	-3.000
1018.411	-3.000
1018.659	0.000
1018.907	-3.000
1019.155	1.000
1019.402	-1.000
1019.650	-2.000
1019.898	-4.000
1020.145	-4.000
1020.393	-1.000
1020.641	-6.000
1020.889	1.000
1021.136	-5.000
1021.384	-3.000
1021.632	3.000
1021.879	2.000
1022.127	-3.000
1022.375	0.000
1022.622	1.000
1022.870	-4.000
1023.118	-1.000
1023.365	-2.000
1023.613	-7.000
1023.861	-6.000
1024.108	-5.000
1024.356	0.000
1024.603	-3.000
1024.851	-3.000
1025.099	-4.000
1025.346	-4.000
1025.594	1.000
1025.841	-2.000
1026.089	-4.000
1026.336	-2.000
1026.584	0.000
1026.832	0.000
1027.079	2.000
1027.327	0.000
1027.574	-2.000
1027.822	-3.000
1028.069	2.000
1028.317	1.000
1028.564	2.000
1028.812	-3.000
1029.059	-8.000
1029.306	-5.000
1029.554	-4.000
1029.801	-2.000
1030.049	-2.000
1030.296	-3.000
1030.544	-2.000
1030.791	1.000
1031.039	-1.000
1031.286	0.000
1031.533	-2.000
1031.781	-1.000
1032.028	-1.000
1032.276	-4.000
1032.523	0.000
1032.770	-3.000
1033.018	-1.000
1033.265	-1.000
1033.512	-4.000
1033.760	-4.000
1034.007	-8.000
1034.254	-1.000
1034.502	1.000
1034.749	4.000
1034.996	1.000
1035.243	-4.000
1035.491	1.000
1035.738	0.000
1035.985	-7.000
1036.233	-3.000
1036.480	0.000
1036.727	-6.000
1036.974	-6.000
1037.222	-2.000
1037.469	-1.000
1037.716	-3.000
1037.963	-2.000
1038.210	-3.000
1038.458	-1.000
1038.705	-2.000
1038.952	1.000
1039.199	-2.000
1039.446	0.000
1039.693	-1.000
1039.941	-3.000
1040.188	-2.000
1040.435	-3.000
1040.682	-4.000
1040.929	3.000
1041.176	1.000
1041.423	-1.000
1041.671	2.000
1041.918	-2.000
1042.165	0.000
1042.412	-2.000
1042.659	6.000
1042.906	4.000
1043.153	1.000
1043.400	-3.000
1043.647	-1.000
1043.894	-5.000
1044.141	4.000
1044.388	-2.000
1044.635	-2.000
1044.882	-3.000
1045.129	-4.000
1045.376	0.000
1045.623	-3.000
1045.870	-2.000
1046.117	1.000
1046.364	-2.000
1046.611	3.000
1046.858	-1.000
1047.105	-2.000
1047.352	-1.000
1047.599	-1.000
1047.846	-3.000
1048.093	-3.000
1048.340	-4.000
1048.587	-1.000
1048.833	-1.000
1049.080	-5.000
1049.327	-2.000
1049.574	-2.000
1049.821	0.000
1050.068	2.000
1050.315	-2.000
1050.561	-1.000
1050.808	-6.000
1051.055	-5.000
1051.302	-2.000
1051.549	1.000
1051.796	-1.000
1052.042	-3.000
1052.289	0.000
1052.536	-2.000
1052.783	-1.000
1053.030	-1.000
1053.276	-1.000
1053.523	-2.000
1053.770	1.000
1054.017	-1.000
1054.263	0.000
1054.510	-3.000
1054.757	-3.000
1055.003	1.000
1055.250	-6.000
1055.497	-7.000
1055.744	-3.000
1055.990	-5.000
1056.237	-3.000
1056.484	0.000
1056.730	-1.000
1056.977	1.000
1057.224	-1.000
1057.470	-1.000
1057.717	3.000
1057.963	0.000
1058.210	-1.000
1058.457	1.000
1058.703	-2.000
1058.950	1.000
1059.197	1.000
1059.443	-1.000
1059.690	1.000
1059.936	3.000
1060.183	0.000
1060.429	-2.000
1060.676	-1.000
1060.922	-1.000
1061.169	-2.000
1061.416	-1.000
1061.662	3.000
1061.909	0.000
1062.155	-3.000
1062.402	0.000
1062.648	1.000
1062.895	1.000
1063.141	-1.000
1063.387	-2.000
1063.634	3.000
1063.880	-1.000
1064.127	-1.000
1064.373	-2.000
1064.620	-1.000
1064.866	-3.000
1065.113	-1.000
1065.359	-1.000
1065.605	-1.000
1065.852	-1.000
1066.098	2.000
1066.345	-3.000
1066.591	-1.000
1066.837	2.000
1067.084	-4.000
1067.330	1.000
1067.576	0.000
1067.823	2.000
1068.069	-4.000
1068.315	-3.000
1068.562	1.000
1068.808	3.000
1069.054	-1.000
1069.301	1.000
1069.547	0.000
1069.793	-2.000
1070.040	-1.000
1070.286	0.000
1070.532	1.000
1070.778	0.000
1071.025	0.000
1071.271	-3.000
1071.517	-6.000
1071.763	0.000
1072.009	-3.000
1072.256	-3.000
1072.502	2.000
1072.748	-4.000
1072.994	0.000
1073.240	0.000
1073.487	0.000
1073.733	1.000
1073.979	1.000
1074.225	1.000
1074.471	0.000
1074.717	-4.000
1074.964	-1.000
1075.210	0.000
1075.456	1.000
1075.702	-3.000
1075.948	-5.000
1076.194	-1.000
1076.440	-5.000
1076.686	0.000
1076.932	0.000
1077.178	2.000
1077.425	-1.000
1077.671	4.000
1077.917	0.000
1078.163	-2.000
1078.409	-8.000
1078.655	1.000
1078.901	-2.000
1079.147	-2.000
1079.393	-2.000
1079.639	-3.000
1079.885	0.000
1080.131	-1.000
1080.377	-5.000
1080.623	0.000
1080.869	-4.000
1081.115	-4.000
1081.361	3.000
1081.606	1.000
1081.852	1.000
1082.098	-3.000
1082.344	0.000
1082.590	-4.000
1082.836	-3.000
1083.082	1.000
1083.328	-3.000
1083.574	-2.000
1083.820	1.000
1084.065	-2.000
1084.311	1.000
1084.557	-2.000
1084.803	2.000
1085.049	3.000
1085.295	-2.000
1085.541	-1.000
1085.786	-3.000
1086.032	-4.000
1086.278	-5.000
1086.524	-2.000
1086.770	-2.000
1087.015	-2.000
1087.261	-1.000
1087.507	-3.000
1087.753	-5.000
1087.998	-6.000
1088.244	-7.000
1088.490	0.000
1088.736	-2.000
1088.981	0.000
1089.227	2.000
1089.473	-2.000
1089.719	-2.000
1089.964	1.000
1090.210	-1.000
1090.456	1.000
1090.701	2.000
1090.947	0.000
1091.193	-4.000
1091.438	-2.000
1091.684	-4.000
1091.930	-5.000
1092.175	1.000
1092.421	-4.000
1092.666	-7.000
1092.912	2.000
1093.158	1.000
1093.403	-4.000
1093.649	4.000
1093.894	-4.000
1094.140	-3.000
1094.386	-2.000
1094.631	-1.000
1094.877	-6.000
1095.122	0.000
1095.368	3.000
1095.613	-4.000
1095.859	1.000
1096.104	1.000
1096.350	-1.000
1096.595	-1.000
1096.841	-4.000
1097.086	1.000
1097.332	-1.000
1097.577	1.000
1097.823	0.000
1098.068	1.000
1098.314	-3.000
1098.559	-2.000
1098.805	3.000
1099.050	-2.000
1099.295	1.000
1099.541	-1.000
1099.786	-2.000
+++++End Spectral Data+++++
