Spectrometer Data
EN
------------------------------
Saving Time:Wed, Jan 21, 2026 13:50:55
Device Name:Aurora 4000
Version Info:V9_84
Serial Number:220120190816098402001100
Integral Time(æs):5000
Avg Count:1
Smoothness:0
Data Type:(0 1)Wavelength-Delete Dark
X-Axis Unit:nm
Y-Axis Unit:counts
Pixel Count:3482
Reserve0:250
Other Description:
+++++Begin Spectral Data+++++
200.149	-1.000
200.421	-2.000
200.693	-5.000
200.966	-6.000
201.238	-2.000
201.510	-5.000
201.782	-4.000
202.054	-5.000
202.326	-2.000
202.598	-3.000
202.870	1.000
203.142	-3.000
203.414	-2.000
203.686	-1.000
203.958	-5.000
204.230	-2.000
204.502	-1.000
204.774	-1.000
205.046	0.000
205.318	0.000
205.590	3.000
205.861	0.000
206.133	-3.000
206.405	-2.000
206.677	-1.000
206.949	-2.000
207.221	-7.000
207.493	-3.000
207.765	-1.000
208.037	-3.000
208.308	2.000
208.580	-2.000
208.852	-1.000
209.124	0.000
209.396	-1.000
209.668	-3.000
209.939	1.000
210.211	0.000
210.483	0.000
210.755	1.000
211.027	-1.000
211.298	-5.000
211.570	-2.000
211.842	-2.000
212.114	2.000
212.385	-3.000
212.657	-2.000
212.929	-3.000
213.200	0.000
213.472	-1.000
213.744	0.000
214.016	-1.000
214.287	-3.000
214.559	-1.000
214.831	-2.000
215.102	-2.000
215.374	1.000
215.645	0.000
215.917	-2.000
216.189	-3.000
216.460	-2.000
216.732	-3.000
217.004	-3.000
217.275	-3.000
217.547	0.000
217.818	-4.000
218.090	-3.000
218.361	-5.000
218.633	-3.000
218.904	-2.000
219.176	4.000
219.448	-1.000
219.719	2.000
219.991	-2.000
220.262	-1.000
220.534	-3.000
220.805	1.000
221.076	-1.000
221.348	-1.000
221.619	2.000
221.891	-3.000
222.162	-3.000
222.434	-3.000
222.705	-3.000
222.977	0.000
223.248	-3.000
223.519	-1.000
223.791	0.000
224.062	-2.000
224.333	-1.000
224.605	-2.000
224.876	-3.000
225.148	-4.000
225.419	1.000
225.690	1.000
225.962	3.000
226.233	-8.000
226.504	1.000
226.775	0.000
227.047	-6.000
227.318	-4.000
227.589	-1.000
227.861	4.000
228.132	2.000
228.403	1.000
228.674	0.000
228.946	-3.000
229.217	-1.000
229.488	-3.000
229.759	0.000
230.030	-1.000
230.302	0.000
230.573	2.000
230.844	3.000
231.115	-3.000
231.386	1.000
231.657	2.000
231.929	-1.000
232.200	-1.000
232.471	3.000
232.742	2.000
233.013	-1.000
233.284	1.000
233.555	-3.000
233.826	1.000
234.097	0.000
234.369	-1.000
234.640	3.000
234.911	1.000
235.182	0.000
235.453	-2.000
235.724	-4.000
235.995	-3.000
236.266	-3.000
236.537	-2.000
236.808	-3.000
237.079	-3.000
237.350	-2.000
237.621	0.000
237.892	0.000
238.163	0.000
238.434	1.000
238.705	5.000
238.975	1.000
239.246	0.000
239.517	-2.000
239.788	0.000
240.059	3.000
240.330	-2.000
240.601	-2.000
240.872	0.000
241.143	0.000
241.413	-5.000
241.684	-4.000
241.955	-3.000
242.226	3.000
242.497	2.000
242.768	2.000
243.038	-3.000
243.309	1.000
243.580	2.000
243.851	0.000
244.122	1.000
244.392	-1.000
244.663	1.000
244.934	0.000
245.205	1.000
245.475	0.000
245.746	2.000
246.017	3.000
246.288	-1.000
246.558	2.000
246.829	-3.000
247.100	-3.000
247.370	1.000
247.641	2.000
247.912	0.000
248.182	-4.000
248.453	-2.000
248.724	0.000
248.994	-2.000
249.265	-2.000
249.535	-2.000
249.806	-4.000
250.077	-3.000
250.347	-3.000
250.618	2.000
250.888	-1.000
251.159	-5.000
251.430	-2.000
251.700	-3.000
251.971	-2.000
252.241	2.000
252.512	0.000
252.782	1.000
253.053	-2.000
253.323	-1.000
253.594	2.000
253.864	-3.000
254.135	-1.000
254.405	-8.000
254.676	1.000
254.946	-3.000
255.216	-1.000
255.487	-2.000
255.757	-5.000
256.028	1.000
256.298	0.000
256.569	1.000
256.839	-1.000
257.109	-7.000
257.380	0.000
257.650	-5.000
257.920	-1.000
258.191	-3.000
258.461	0.000
258.731	-5.000
259.002	-5.000
259.272	-4.000
259.542	1.000
259.813	1.000
260.083	2.000
260.353	0.000
260.624	-9.000
260.894	-2.000
261.164	3.000
261.434	0.000
261.705	-1.000
261.975	-4.000
262.245	-3.000
262.515	1.000
262.786	0.000
263.056	0.000
263.326	3.000
263.596	3.000
263.866	-2.000
264.137	0.000
264.407	2.000
264.677	-2.000
264.947	3.000
265.217	-1.000
265.487	-1.000
265.757	-2.000
266.027	-4.000
266.298	-4.000
266.568	-3.000
266.838	-4.000
267.108	1.000
267.378	-4.000
267.648	-2.000
267.918	1.000
268.188	3.000
268.458	1.000
268.728	0.000
268.998	-3.000
269.268	-3.000
269.538	-4.000
269.808	0.000
270.078	2.000
270.348	1.000
270.618	0.000
270.888	-1.000
271.158	0.000
271.428	0.000
271.698	0.000
271.968	0.000
272.238	-5.000
272.508	-2.000
272.778	-3.000
273.048	-4.000
273.318	1.000
273.587	1.000
273.857	0.000
274.127	2.000
274.397	4.000
274.667	-8.000
274.937	-6.000
275.207	-3.000
275.476	-5.000
275.746	-3.000
276.016	-4.000
276.286	4.000
276.556	-2.000
276.826	-1.000
277.095	1.000
277.365	-3.000
277.635	-3.000
277.905	-3.000
278.174	-5.000
278.444	-4.000
278.714	-5.000
278.984	-4.000
279.253	-5.000
279.523	1.000
279.793	-4.000
280.062	-5.000
280.332	-3.000
280.602	-1.000
280.871	-3.000
281.141	-2.000
281.411	-5.000
281.680	-5.000
281.950	1.000
282.220	-6.000
282.489	-11.000
282.759	2.000
283.029	-2.000
283.298	-3.000
283.568	-2.000
283.837	1.000
284.107	0.000
284.376	5.000
284.646	-1.000
284.916	2.000
285.185	-1.000
285.455	-1.000
285.724	-4.000
285.994	-7.000
286.263	-2.000
286.533	-4.000
286.802	-4.000
287.072	-3.000
287.341	0.000
287.611	-4.000
287.880	-4.000
288.149	-4.000
288.419	-3.000
288.688	-6.000
288.958	-3.000
289.227	1.000
289.497	-1.000
289.766	-4.000
290.035	0.000
290.305	2.000
290.574	1.000
290.844	-4.000
291.113	-3.000
291.382	-3.000
291.652	1.000
291.921	0.000
292.190	0.000
292.460	-1.000
292.729	-3.000
292.998	-9.000
293.268	-3.000
293.537	-6.000
293.806	-1.000
294.075	-3.000
294.345	4.000
294.614	-1.000
294.883	0.000
295.152	-4.000
295.422	-3.000
295.691	-3.000
295.960	-5.000
296.229	-9.000
296.498	-5.000
296.768	1.000
297.037	-1.000
297.306	-5.000
297.575	-2.000
297.844	4.000
298.114	2.000
298.383	-7.000
298.652	-5.000
298.921	0.000
299.190	-2.000
299.459	-4.000
299.728	-3.000
299.997	-1.000
300.266	0.000
300.536	-2.000
300.805	0.000
301.074	-2.000
301.343	-4.000
301.612	-3.000
301.881	1.000
302.150	-5.000
302.419	-1.000
302.688	-4.000
302.957	-2.000
303.226	0.000
303.495	-4.000
303.764	-4.000
304.033	-1.000
304.302	-4.000
304.571	-3.000
304.840	4.000
305.109	-4.000
305.378	-1.000
305.646	-5.000
305.915	-5.000
306.184	-4.000
306.453	-4.000
306.722	1.000
306.991	-7.000
307.260	-5.000
307.529	-3.000
307.798	-7.000
308.066	-4.000
308.335	-10.000
308.604	-5.000
308.873	-1.000
309.142	-1.000
309.411	-4.000
309.679	-4.000
309.948	1.000
310.217	0.000
310.486	-5.000
310.755	-6.000
311.023	-2.000
311.292	-1.000
311.561	-1.000
311.830	-2.000
312.098	-3.000
312.367	-6.000
312.636	-5.000
312.904	-4.000
313.173	-3.000
313.442	-5.000
313.711	-6.000
313.979	-5.000
314.248	-5.000
314.517	-2.000
314.785	-4.000
315.054	-5.000
315.322	-1.000
315.591	2.000
315.860	-4.000
316.128	-3.000
316.397	-3.000
316.665	-10.000
316.934	-2.000
317.203	-7.000
317.471	-3.000
317.740	-3.000
318.008	-5.000
318.277	1.000
318.545	-5.000
318.814	-2.000
319.082	-4.000
319.351	-1.000
319.619	-3.000
319.888	-1.000
320.156	-1.000
320.425	-3.000
320.693	-5.000
320.962	-3.000
321.230	-5.000
321.499	-3.000
321.767	-3.000
322.036	-3.000
322.304	-4.000
322.573	-3.000
322.841	0.000
323.109	-3.000
323.378	-3.000
323.646	3.000
323.914	-1.000
324.183	-4.000
324.451	-4.000
324.720	-3.000
324.988	2.000
325.256	-2.000
325.525	0.000
325.793	1.000
326.061	-1.000
326.330	0.000
326.598	-4.000
326.866	-2.000
327.134	-3.000
327.403	-9.000
327.671	-5.000
327.939	-6.000
328.207	-3.000
328.476	0.000
328.744	-5.000
329.012	-3.000
329.280	-8.000
329.549	-3.000
329.817	-9.000
330.085	-2.000
330.353	-1.000
330.621	-1.000
330.889	-1.000
331.158	-3.000
331.426	-2.000
331.694	-5.000
331.962	-3.000
332.230	-4.000
332.498	-3.000
332.766	-1.000
333.035	-4.000
333.303	-4.000
333.571	-2.000
333.839	-5.000
334.107	-4.000
334.375	1.000
334.643	-4.000
334.911	0.000
335.179	-4.000
335.447	-3.000
335.715	-8.000
335.983	-3.000
336.251	-7.000
336.519	-4.000
336.787	-1.000
337.055	-5.000
337.323	-4.000
337.591	-2.000
337.859	-1.000
338.127	-4.000
338.395	1.000
338.663	-5.000
338.931	-4.000
339.199	0.000
339.467	-5.000
339.734	-3.000
340.002	-1.000
340.270	-2.000
340.538	-1.000
340.806	-7.000
341.074	1.000
341.342	-4.000
341.610	-2.000
341.877	-4.000
342.145	-4.000
342.413	0.000
342.681	-2.000
342.949	-4.000
343.216	-3.000
343.484	-6.000
343.752	0.000
344.020	-4.000
344.288	-6.000
344.555	-7.000
344.823	-5.000
345.091	-3.000
345.359	-2.000
345.626	-4.000
345.894	-2.000
346.162	-2.000
346.429	-4.000
346.697	-6.000
346.965	-2.000
347.232	-4.000
347.500	-3.000
347.768	-5.000
348.035	-3.000
348.303	-5.000
348.571	1.000
348.838	-2.000
349.106	-3.000
349.374	-5.000
349.641	-8.000
349.909	-5.000
350.176	-2.000
350.444	-1.000
350.712	-3.000
350.979	-3.000
351.247	-2.000
351.514	-2.000
351.782	-4.000
352.049	-2.000
352.317	-3.000
352.584	-7.000
352.852	-5.000
353.119	-4.000
353.387	-1.000
353.654	-9.000
353.922	-6.000
354.189	-6.000
354.457	-5.000
354.724	-4.000
354.992	-2.000
355.259	-5.000
355.526	-3.000
355.794	-5.000
356.061	-8.000
356.329	-7.000
356.596	-5.000
356.863	-4.000
357.131	-2.000
357.398	-9.000
357.666	-4.000
357.933	-2.000
358.200	-4.000
358.468	-1.000
358.735	-4.000
359.002	-3.000
359.270	-7.000
359.537	-6.000
359.804	-5.000
360.071	1.000
360.339	-4.000
360.606	-3.000
360.873	-1.000
361.141	-2.000
361.408	-7.000
361.675	-4.000
361.942	-7.000
362.210	0.000
362.477	-1.000
362.744	-2.000
363.011	-5.000
363.278	-5.000
363.546	-5.000
363.813	-3.000
364.080	-6.000
364.347	-6.000
364.614	-5.000
364.881	-4.000
365.148	-4.000
365.416	-2.000
365.683	-1.000
365.950	-1.000
366.217	-2.000
366.484	-2.000
366.751	-3.000
367.018	1.000
367.285	-1.000
367.552	-4.000
367.819	-3.000
368.086	-5.000
368.354	2.000
368.621	-5.000
368.888	1.000
369.155	-2.000
369.422	-1.000
369.689	1.000
369.956	1.000
370.223	1.000
370.490	-2.000
370.757	-5.000
371.024	1.000
371.290	-2.000
371.557	-4.000
371.824	-1.000
372.091	1.000
372.358	2.000
372.625	2.000
372.892	-1.000
373.159	-3.000
373.426	-1.000
373.693	-3.000
373.960	1.000
374.226	-1.000
374.493	-2.000
374.760	-7.000
375.027	-3.000
375.294	-3.000
375.561	-6.000
375.827	-6.000
376.094	1.000
376.361	-2.000
376.628	-5.000
376.895	-1.000
377.161	-1.000
377.428	-2.000
377.695	0.000
377.962	-2.000
378.228	1.000
378.495	-2.000
378.762	-1.000
379.029	-4.000
379.295	1.000
379.562	2.000
379.829	0.000
380.095	-2.000
380.362	-3.000
380.629	-1.000
380.896	-1.000
381.162	1.000
381.429	-4.000
381.695	-1.000
381.962	-2.000
382.229	0.000
382.495	0.000
382.762	2.000
383.029	-3.000
383.295	-6.000
383.562	-9.000
383.828	-6.000
384.095	-5.000
384.361	0.000
384.628	-1.000
384.895	2.000
385.161	2.000
385.428	-1.000
385.694	0.000
385.961	-6.000
386.227	-7.000
386.494	-6.000
386.760	-1.000
387.027	-2.000
387.293	-3.000
387.560	-5.000
387.826	-1.000
388.092	-1.000
388.359	-3.000
388.625	-2.000
388.892	1.000
389.158	-3.000
389.425	4.000
389.691	-2.000
389.957	-3.000
390.224	-1.000
390.490	0.000
390.757	0.000
391.023	-3.000
391.289	-5.000
391.556	-1.000
391.822	0.000
392.088	-2.000
392.355	-2.000
392.621	-2.000
392.887	3.000
393.154	-3.000
393.420	4.000
393.686	-5.000
393.952	-2.000
394.219	-1.000
394.485	2.000
394.751	-4.000
395.017	1.000
395.284	-2.000
395.550	-3.000
395.816	-2.000
396.082	-6.000
396.349	-4.000
396.615	-3.000
396.881	-3.000
397.147	-5.000
397.413	-1.000
397.679	-3.000
397.946	-3.000
398.212	0.000
398.478	2.000
398.744	-1.000
399.010	-1.000
399.276	-6.000
399.542	-2.000
399.808	-1.000
400.075	-3.000
400.341	-3.000
400.607	-5.000
400.873	0.000
401.139	-4.000
401.405	-6.000
401.671	-1.000
401.937	-3.000
402.203	-1.000
402.469	-2.000
402.735	-3.000
403.001	-2.000
403.267	-3.000
403.533	0.000
403.799	-1.000
404.065	-1.000
404.331	-2.000
404.597	-1.000
404.863	-3.000
405.129	0.000
405.395	-2.000
405.661	0.000
405.927	-1.000
406.192	-5.000
406.458	2.000
406.724	-5.000
406.990	-4.000
407.256	-4.000
407.522	-4.000
407.788	0.000
408.054	-2.000
408.319	4.000
408.585	0.000
408.851	0.000
409.117	-4.000
409.383	-1.000
409.649	-2.000
409.914	-1.000
410.180	-2.000
410.446	0.000
410.712	2.000
410.977	-1.000
411.243	-1.000
411.509	-1.000
411.775	-3.000
412.040	-4.000
412.306	-2.000
412.572	0.000
412.838	-4.000
413.103	1.000
413.369	0.000
413.635	-1.000
413.900	-4.000
414.166	-3.000
414.432	-3.000
414.697	-1.000
414.963	-3.000
415.229	3.000
415.494	0.000
415.760	1.000
416.025	-2.000
416.291	2.000
416.557	-1.000
416.822	-4.000
417.088	3.000
417.353	1.000
417.619	3.000
417.884	-2.000
418.150	-1.000
418.416	-2.000
418.681	1.000
418.947	-1.000
419.212	-2.000
419.478	-6.000
419.743	0.000
420.009	-3.000
420.274	-3.000
420.540	-1.000
420.805	-6.000
421.071	-1.000
421.336	1.000
421.601	-4.000
421.867	2.000
422.132	-4.000
422.398	3.000
422.663	-2.000
422.929	-4.000
423.194	-2.000
423.459	-2.000
423.725	-4.000
423.990	-2.000
424.256	-3.000
424.521	-3.000
424.786	-3.000
425.052	1.000
425.317	-4.000
425.582	-3.000
425.848	-2.000
426.113	-9.000
426.378	-1.000
426.643	-1.000
426.909	-1.000
427.174	2.000
427.439	3.000
427.705	-3.000
427.970	1.000
428.235	0.000
428.500	0.000
428.766	-2.000
429.031	1.000
429.296	-1.000
429.561	-1.000
429.826	0.000
430.092	-1.000
430.357	-1.000
430.622	0.000
430.887	-1.000
431.152	-2.000
431.417	-4.000
431.683	-1.000
431.948	-3.000
432.213	1.000
432.478	5.000
432.743	-1.000
433.008	1.000
433.273	-2.000
433.538	-1.000
433.803	0.000
434.069	-3.000
434.334	0.000
434.599	2.000
434.864	-4.000
435.129	-1.000
435.394	-3.000
435.659	-2.000
435.924	-6.000
436.189	-3.000
436.454	-6.000
436.719	-2.000
436.984	-2.000
437.249	-4.000
437.514	2.000
437.779	3.000
438.044	-6.000
438.309	-4.000
438.574	-1.000
438.838	-4.000
439.103	-6.000
439.368	-3.000
439.633	1.000
439.898	-1.000
440.163	-4.000
440.428	-2.000
440.693	1.000
440.958	-2.000
441.222	-1.000
441.487	1.000
441.752	0.000
442.017	-4.000
442.282	-4.000
442.547	-1.000
442.811	-3.000
443.076	-4.000
443.341	-3.000
443.606	0.000
443.871	-3.000
444.135	-3.000
444.400	-2.000
444.665	-1.000
444.930	-6.000
445.194	1.000
445.459	-3.000
445.724	-6.000
445.989	-5.000
446.253	2.000
446.518	0.000
446.783	2.000
447.047	1.000
447.312	-1.000
447.577	-2.000
447.841	-2.000
448.106	-2.000
448.371	-5.000
448.635	-3.000
448.900	-6.000
449.165	-1.000
449.429	-1.000
449.694	1.000
449.958	-4.000
450.223	-3.000
450.488	-2.000
450.752	-4.000
451.017	0.000
451.281	-1.000
451.546	0.000
451.810	1.000
452.075	-1.000
452.339	-4.000
452.604	-2.000
452.868	0.000
453.133	-2.000
453.397	-5.000
453.662	-2.000
453.926	2.000
454.191	2.000
454.455	-3.000
454.720	-1.000
454.984	-2.000
455.249	-1.000
455.513	-1.000
455.778	-3.000
456.042	-1.000
456.306	-4.000
456.571	2.000
456.835	0.000
457.100	-1.000
457.364	-4.000
457.628	1.000
457.893	0.000
458.157	-1.000
458.421	-1.000
458.686	-2.000
458.950	-4.000
459.214	-4.000
459.479	3.000
459.743	0.000
460.007	-4.000
460.272	-2.000
460.536	-2.000
460.800	-1.000
461.064	-5.000
461.329	-2.000
461.593	0.000
461.857	-4.000
462.121	-2.000
462.386	0.000
462.650	-4.000
462.914	-7.000
463.178	-3.000
463.442	0.000
463.707	-5.000
463.971	-8.000
464.235	0.000
464.499	3.000
464.763	-2.000
465.027	0.000
465.292	1.000
465.556	-1.000
465.820	-3.000
466.084	-3.000
466.348	2.000
466.612	-1.000
466.876	-2.000
467.140	0.000
467.404	2.000
467.668	-5.000
467.933	-5.000
468.197	0.000
468.461	-4.000
468.725	-5.000
468.989	-5.000
469.253	2.000
469.517	-3.000
469.781	1.000
470.045	-1.000
470.309	-3.000
470.573	0.000
470.837	-4.000
471.101	0.000
471.365	-1.000
471.629	-8.000
471.892	-6.000
472.156	1.000
472.420	-3.000
472.684	-1.000
472.948	-1.000
473.212	-2.000
473.476	1.000
473.740	-3.000
474.004	-2.000
474.268	0.000
474.531	2.000
474.795	0.000
475.059	-4.000
475.323	-5.000
475.587	-4.000
475.851	-3.000
476.114	-1.000
476.378	-5.000
476.642	-9.000
476.906	-5.000
477.170	-2.000
477.433	-4.000
477.697	-4.000
477.961	-2.000
478.225	-1.000
478.488	-7.000
478.752	-2.000
479.016	-6.000
479.280	-5.000
479.543	-4.000
479.807	-6.000
480.071	-3.000
480.334	-4.000
480.598	-1.000
480.862	-3.000
481.125	-4.000
481.389	-9.000
481.653	1.000
481.916	-2.000
482.180	-1.000
482.444	1.000
482.707	-1.000
482.971	0.000
483.234	-4.000
483.498	-5.000
483.762	-4.000
484.025	-3.000
484.289	-2.000
484.552	-1.000
484.816	-2.000
485.079	-5.000
485.343	-4.000
485.607	-5.000
485.870	-3.000
486.134	0.000
486.397	-3.000
486.661	-1.000
486.924	-4.000
487.188	-1.000
487.451	-4.000
487.715	1.000
487.978	-3.000
488.241	-1.000
488.505	-3.000
488.768	-1.000
489.032	0.000
489.295	-4.000
489.559	-4.000
489.822	-3.000
490.085	3.000
490.349	3.000
490.612	-1.000
490.876	-4.000
491.139	1.000
491.402	2.000
491.666	0.000
491.929	-5.000
492.192	-2.000
492.456	5.000
492.719	2.000
492.982	1.000
493.246	-2.000
493.509	-4.000
493.772	0.000
494.035	-3.000
494.299	-2.000
494.562	-1.000
494.825	-3.000
495.088	-5.000
495.352	1.000
495.615	-1.000
495.878	-3.000
496.141	-3.000
496.405	-4.000
496.668	-1.000
496.931	-5.000
497.194	-2.000
497.457	0.000
497.721	-2.000
497.984	-2.000
498.247	-1.000
498.510	-1.000
498.773	-4.000
499.036	-2.000
499.299	-5.000
499.562	-5.000
499.826	-5.000
500.089	-2.000
500.352	-3.000
500.615	-2.000
500.878	-1.000
501.141	-5.000
501.404	-10.000
501.667	-5.000
501.930	-1.000
502.193	-4.000
502.456	-3.000
502.719	-4.000
502.982	-1.000
503.245	-2.000
503.508	1.000
503.771	1.000
504.034	-1.000
504.297	0.000
504.560	-2.000
504.823	-6.000
505.086	-2.000
505.349	0.000
505.612	-2.000
505.875	-3.000
506.138	-1.000
506.401	0.000
506.664	-1.000
506.927	-2.000
507.189	-2.000
507.452	-5.000
507.715	-2.000
507.978	-2.000
508.241	4.000
508.504	-2.000
508.767	-2.000
509.029	1.000
509.292	-2.000
509.555	-2.000
509.818	1.000
510.081	-3.000
510.343	-3.000
510.606	-3.000
510.869	-2.000
511.132	-3.000
511.395	-1.000
511.657	-4.000
511.920	-2.000
512.183	-1.000
512.446	-2.000
512.708	0.000
512.971	0.000
513.234	-1.000
513.496	1.000
513.759	-2.000
514.022	-3.000
514.284	-2.000
514.547	-2.000
514.810	2.000
515.072	0.000
515.335	-6.000
515.598	0.000
515.860	-1.000
516.123	2.000
516.386	-4.000
516.648	-1.000
516.911	-3.000
517.173	1.000
517.436	-2.000
517.698	0.000
517.961	-5.000
518.224	-2.000
518.486	3.000
518.749	-4.000
519.011	-1.000
519.274	-2.000
519.536	3.000
519.799	-7.000
520.061	-3.000
520.324	-1.000
520.586	-4.000
520.849	-5.000
521.111	-3.000
521.374	-2.000
521.636	-4.000
521.899	-3.000
522.161	-4.000
522.423	-5.000
522.686	1.000
522.948	-5.000
523.211	-2.000
523.473	-1.000
523.736	-3.000
523.998	3.000
524.260	-1.000
524.523	-4.000
524.785	-2.000
525.047	-2.000
525.310	-2.000
525.572	-6.000
525.834	-2.000
526.097	-3.000
526.359	0.000
526.621	-1.000
526.884	0.000
527.146	-1.000
527.408	-2.000
527.670	0.000
527.933	0.000
528.195	2.000
528.457	-5.000
528.719	-2.000
528.982	-2.000
529.244	-2.000
529.506	2.000
529.768	-1.000
530.031	-2.000
530.293	-3.000
530.555	-1.000
530.817	1.000
531.079	-1.000
531.342	0.000
531.604	-1.000
531.866	2.000
532.128	-4.000
532.390	2.000
532.652	0.000
532.914	-1.000
533.176	-3.000
533.439	-3.000
533.701	-4.000
533.963	-4.000
534.225	0.000
534.487	-3.000
534.749	-1.000
535.011	-1.000
535.273	0.000
535.535	0.000
535.797	-2.000
536.059	0.000
536.321	4.000
536.583	-2.000
536.845	-6.000
537.107	-6.000
537.369	-4.000
537.631	-2.000
537.893	-2.000
538.155	2.000
538.417	1.000
538.679	-3.000
538.941	-5.000
539.203	-5.000
539.465	-4.000
539.727	-3.000
539.989	-2.000
540.251	0.000
540.512	-2.000
540.774	-3.000
541.036	-2.000
541.298	-2.000
541.560	-3.000
541.822	1.000
542.084	1.000
542.345	-5.000
542.607	-2.000
542.869	-1.000
543.131	-4.000
543.393	-3.000
543.655	-1.000
543.916	-3.000
544.178	2.000
544.440	1.000
544.702	1.000
544.963	-2.000
545.225	-7.000
545.487	-6.000
545.749	-4.000
546.010	-11.000
546.272	-1.000
546.534	-3.000
546.795	1.000
547.057	0.000
547.319	-1.000
547.581	-1.000
547.842	-3.000
548.104	-1.000
548.366	-1.000
548.627	-2.000
548.889	-2.000
549.150	-1.000
549.412	5.000
549.674	2.000
549.935	-6.000
550.197	-2.000
550.459	0.000
550.720	1.000
550.982	0.000
551.243	-2.000
551.505	2.000
551.766	0.000
552.028	3.000
552.289	-4.000
552.551	0.000
552.813	-1.000
553.074	-1.000
553.336	1.000
553.597	-2.000
553.859	-1.000
554.120	1.000
554.382	-1.000
554.643	0.000
554.904	0.000
555.166	-2.000
555.427	-2.000
555.689	-2.000
555.950	-4.000
556.212	0.000
556.473	-1.000
556.735	-1.000
556.996	-2.000
557.257	-2.000
557.519	-1.000
557.780	-4.000
558.041	-5.000
558.303	2.000
558.564	2.000
558.826	-1.000
559.087	0.000
559.348	-2.000
559.609	0.000
559.871	-2.000
560.132	0.000
560.393	-1.000
560.655	-1.000
560.916	-2.000
561.177	-5.000
561.439	-3.000
561.700	-1.000
561.961	-2.000
562.222	-1.000
562.484	-1.000
562.745	-2.000
563.006	-3.000
563.267	1.000
563.528	-5.000
563.790	-5.000
564.051	-7.000
564.312	-2.000
564.573	0.000
564.834	-3.000
565.095	0.000
565.357	-1.000
565.618	-3.000
565.879	-4.000
566.140	0.000
566.401	-5.000
566.662	-1.000
566.923	1.000
567.184	0.000
567.446	-4.000
567.707	0.000
567.968	1.000
568.229	0.000
568.490	-3.000
568.751	0.000
569.012	2.000
569.273	-3.000
569.534	1.000
569.795	0.000
570.056	1.000
570.317	-4.000
570.578	-4.000
570.839	-1.000
571.100	2.000
571.361	1.000
571.622	1.000
571.883	-3.000
572.144	-2.000
572.405	-1.000
572.666	1.000
572.927	-6.000
573.188	-3.000
573.449	-3.000
573.709	-4.000
573.970	-5.000
574.231	-5.000
574.492	1.000
574.753	-4.000
575.014	-2.000
575.275	1.000
575.536	-2.000
575.796	2.000
576.057	4.000
576.318	1.000
576.579	-2.000
576.840	1.000
577.100	-1.000
577.361	-3.000
577.622	-4.000
577.883	-6.000
578.144	-3.000
578.404	-2.000
578.665	-1.000
578.926	-1.000
579.187	3.000
579.447	-1.000
579.708	-1.000
579.969	-3.000
580.229	-2.000
580.490	0.000
580.751	0.000
581.012	0.000
581.272	-5.000
581.533	0.000
581.794	-3.000
582.054	-5.000
582.315	-2.000
582.576	1.000
582.836	-7.000
583.097	0.000
583.357	-4.000
583.618	-1.000
583.879	-2.000
584.139	-2.000
584.400	-2.000
584.660	0.000
584.921	-6.000
585.181	-7.000
585.442	-5.000
585.703	-8.000
585.963	0.000
586.224	-2.000
586.484	2.000
586.745	-2.000
587.005	0.000
587.266	5.000
587.526	0.000
587.787	-2.000
588.047	-4.000
588.308	-4.000
588.568	-4.000
588.829	1.000
589.089	-3.000
589.349	-4.000
589.610	-1.000
589.870	1.000
590.131	-1.000
590.391	1.000
590.651	-1.000
590.912	2.000
591.172	-3.000
591.433	2.000
591.693	3.000
591.953	-3.000
592.214	-3.000
592.474	-2.000
592.734	-2.000
592.995	-2.000
593.255	0.000
593.515	-3.000
593.776	-6.000
594.036	-5.000
594.296	-1.000
594.557	-3.000
594.817	-2.000
595.077	0.000
595.337	-4.000
595.598	-3.000
595.858	-4.000
596.118	-1.000
596.378	-5.000
596.639	-6.000
596.899	-2.000
597.159	-10.000
597.419	0.000
597.679	-3.000
597.939	-3.000
598.200	-1.000
598.460	-6.000
598.720	-3.000
598.980	0.000
599.240	2.000
599.500	-1.000
599.761	-1.000
600.021	-3.000
600.281	-1.000
600.541	-6.000
600.801	-2.000
601.061	-1.000
601.321	-1.000
601.581	0.000
601.841	-1.000
602.101	0.000
602.361	-2.000
602.621	-7.000
602.881	-3.000
603.142	-6.000
603.402	-2.000
603.662	-1.000
603.922	2.000
604.182	-3.000
604.442	-5.000
604.702	-2.000
604.961	-3.000
605.221	1.000
605.481	-1.000
605.741	-3.000
606.001	-5.000
606.261	-1.000
606.521	-6.000
606.781	1.000
607.041	-2.000
607.301	1.000
607.561	-8.000
607.821	-3.000
608.081	2.000
608.340	-3.000
608.600	-5.000
608.860	1.000
609.120	-1.000
609.380	0.000
609.640	-8.000
609.899	-3.000
610.159	1.000
610.419	-3.000
610.679	-5.000
610.939	-5.000
611.199	0.000
611.458	-4.000
611.718	-5.000
611.978	-5.000
612.238	-2.000
612.497	0.000
612.757	-3.000
613.017	-2.000
613.277	-3.000
613.536	1.000
613.796	1.000
614.056	-1.000
614.315	-4.000
614.575	-5.000
614.835	-2.000
615.094	-4.000
615.354	0.000
615.614	-6.000
615.873	-5.000
616.133	2.000
616.393	-4.000
616.652	-3.000
616.912	-3.000
617.171	-2.000
617.431	-2.000
617.691	0.000
617.950	-2.000
618.210	-2.000
618.469	-4.000
618.729	-2.000
618.989	-8.000
619.248	-3.000
619.508	-5.000
619.767	1.000
620.027	-1.000
620.286	-1.000
620.546	-3.000
620.805	-4.000
621.065	-1.000
621.324	-3.000
621.584	-5.000
621.843	-1.000
622.103	0.000
622.362	0.000
622.622	0.000
622.881	1.000
623.140	-1.000
623.400	1.000
623.659	1.000
623.919	-3.000
624.178	-1.000
624.437	-4.000
624.697	-2.000
624.956	-2.000
625.216	-1.000
625.475	0.000
625.734	1.000
625.994	-2.000
626.253	-1.000
626.512	-3.000
626.772	-1.000
627.031	-2.000
627.290	-3.000
627.550	-6.000
627.809	-1.000
628.068	0.000
628.327	-6.000
628.587	-2.000
628.846	-6.000
629.105	-6.000
629.364	-4.000
629.624	-3.000
629.883	-6.000
630.142	-3.000
630.401	1.000
630.661	-4.000
630.920	-2.000
631.179	0.000
631.438	-1.000
631.697	0.000
631.957	-2.000
632.216	0.000
632.475	-4.000
632.734	2.000
632.993	-1.000
633.252	-1.000
633.511	-2.000
633.770	-6.000
634.030	-2.000
634.289	-3.000
634.548	-2.000
634.807	-3.000
635.066	-1.000
635.325	-4.000
635.584	-3.000
635.843	-5.000
636.102	-2.000
636.361	-1.000
636.620	-3.000
636.879	-4.000
637.138	1.000
637.397	-2.000
637.656	-1.000
637.915	-3.000
638.174	0.000
638.433	-4.000
638.692	-2.000
638.951	-1.000
639.210	-3.000
639.469	-2.000
639.728	-1.000
639.987	-6.000
640.246	0.000
640.505	0.000
640.764	4.000
641.023	3.000
641.282	-1.000
641.540	1.000
641.799	1.000
642.058	-4.000
642.317	-2.000
642.576	-2.000
642.835	-3.000
643.094	-2.000
643.352	-1.000
643.611	-2.000
643.870	-2.000
644.129	-2.000
644.388	-4.000
644.646	1.000
644.905	0.000
645.164	-2.000
645.423	2.000
645.682	-5.000
645.940	-3.000
646.199	-4.000
646.458	-5.000
646.716	-2.000
646.975	-2.000
647.234	-2.000
647.493	-5.000
647.751	-3.000
648.010	-3.000
648.269	-2.000
648.527	-1.000
648.786	1.000
649.045	-1.000
649.303	-2.000
649.562	-3.000
649.821	-4.000
650.079	-1.000
650.338	4.000
650.597	2.000
650.855	-3.000
651.114	-4.000
651.372	-1.000
651.631	-1.000
651.890	-3.000
652.148	0.000
652.407	-7.000
652.665	-4.000
652.924	-4.000
653.182	-3.000
653.441	-3.000
653.699	1.000
653.958	-5.000
654.216	-2.000
654.475	4.000
654.733	1.000
654.992	-2.000
655.250	-2.000
655.509	0.000
655.767	-4.000
656.026	-4.000
656.284	-4.000
656.543	1.000
656.801	1.000
657.059	0.000
657.318	-2.000
657.576	-1.000
657.835	-5.000
658.093	-2.000
658.351	2.000
658.610	-6.000
658.868	-4.000
659.127	-3.000
659.385	1.000
659.643	0.000
659.902	-2.000
660.160	-2.000
660.418	0.000
660.677	-3.000
660.935	-5.000
661.193	2.000
661.452	-5.000
661.710	-2.000
661.968	2.000
662.226	2.000
662.485	-3.000
662.743	-1.000
663.001	-4.000
663.259	-1.000
663.518	0.000
663.776	-4.000
664.034	-1.000
664.292	-4.000
664.550	-4.000
664.809	-1.000
665.067	1.000
665.325	-4.000
665.583	0.000
665.841	0.000
666.099	-3.000
666.358	1.000
666.616	-1.000
666.874	-1.000
667.132	-3.000
667.390	-4.000
667.648	1.000
667.906	1.000
668.164	-7.000
668.423	1.000
668.681	-3.000
668.939	-1.000
669.197	-2.000
669.455	3.000
669.713	-4.000
669.971	-1.000
670.229	1.000
670.487	-2.000
670.745	0.000
671.003	3.000
671.261	-6.000
671.519	0.000
671.777	-2.000
672.035	-1.000
672.293	1.000
672.551	-1.000
672.809	-3.000
673.067	-2.000
673.325	-4.000
673.583	-2.000
673.841	0.000
674.099	-3.000
674.356	0.000
674.614	-7.000
674.872	-1.000
675.130	1.000
675.388	-5.000
675.646	-1.000
675.904	-3.000
676.162	-7.000
676.419	-6.000
676.677	-3.000
676.935	1.000
677.193	-2.000
677.451	-4.000
677.709	-4.000
677.966	-2.000
678.224	-8.000
678.482	-6.000
678.740	-2.000
678.998	-4.000
679.255	-3.000
679.513	-5.000
679.771	-4.000
680.029	-2.000
680.286	-3.000
680.544	-5.000
680.802	-3.000
681.059	-3.000
681.317	-4.000
681.575	-1.000
681.833	0.000
682.090	-2.000
682.348	-4.000
682.606	-3.000
682.863	-2.000
683.121	0.000
683.379	1.000
683.636	3.000
683.894	-5.000
684.151	2.000
684.409	-2.000
684.667	-3.000
684.924	-6.000
685.182	-1.000
685.439	-1.000
685.697	-3.000
685.955	-3.000
686.212	-6.000
686.470	-6.000
686.727	-6.000
686.985	-2.000
687.242	-2.000
687.500	-1.000
687.757	-4.000
688.015	-6.000
688.272	0.000
688.530	-2.000
688.787	-4.000
689.045	-8.000
689.302	-3.000
689.560	-2.000
689.817	-1.000
690.075	-1.000
690.332	-4.000
690.589	0.000
690.847	-8.000
691.104	-2.000
691.362	-6.000
691.619	-3.000
691.876	-2.000
692.134	-4.000
692.391	1.000
692.649	2.000
692.906	-3.000
693.163	2.000
693.421	-4.000
693.678	1.000
693.935	-7.000
694.193	-1.000
694.450	-6.000
694.707	-3.000
694.965	-3.000
695.222	-5.000
695.479	-4.000
695.736	-4.000
695.994	-9.000
696.251	16.000
696.508	86.000
696.765	91.000
697.023	45.000
697.280	2.000
697.537	-6.000
697.794	-7.000
698.052	-7.000
698.309	-4.000
698.566	-4.000
698.823	0.000
699.080	-4.000
699.338	-4.000
699.595	-2.000
699.852	-5.000
700.109	-2.000
700.366	-1.000
700.623	-4.000
700.880	-2.000
701.137	-2.000
701.395	-8.000
701.652	-1.000
701.909	-5.000
702.166	2.000
702.423	-4.000
702.680	-2.000
702.937	-1.000
703.194	-2.000
703.451	-2.000
703.708	-4.000
703.965	-3.000
704.222	0.000
704.479	-5.000
704.736	-5.000
704.993	-6.000
705.250	-3.000
705.507	-5.000
705.764	-2.000
706.021	-6.000
706.278	-7.000
706.535	-2.000
706.792	59.000
707.049	46.000
707.306	8.000
707.563	-6.000
707.820	-6.000
708.077	-4.000
708.334	-6.000
708.591	-1.000
708.847	-4.000
709.104	0.000
709.361	0.000
709.618	-5.000
709.875	-7.000
710.132	-6.000
710.389	-3.000
710.645	-5.000
710.902	-3.000
711.159	2.000
711.416	-2.000
711.673	1.000
711.930	-4.000
712.186	-6.000
712.443	-1.000
712.700	-3.000
712.957	-3.000
713.213	-7.000
713.470	0.000
713.727	-3.000
713.984	-3.000
714.240	-1.000
714.497	-6.000
714.754	-5.000
715.011	-10.000
715.267	-2.000
715.524	-7.000
715.781	-5.000
716.037	-7.000
716.294	-3.000
716.551	-2.000
716.807	-2.000
717.064	-2.000
717.321	-3.000
717.577	2.000
717.834	1.000
718.090	-3.000
718.347	-2.000
718.604	-4.000
718.860	-3.000
719.117	-6.000
719.373	1.000
719.630	-2.000
719.886	-3.000
720.143	-2.000
720.400	3.000
720.656	-5.000
720.913	0.000
721.169	1.000
721.426	-1.000
721.682	3.000
721.939	-3.000
722.195	0.000
722.452	-4.000
722.708	-6.000
722.965	-1.000
723.221	-3.000
723.478	-3.000
723.734	-1.000
723.990	-1.000
724.247	-5.000
724.503	-5.000
724.760	-3.000
725.016	-5.000
725.273	-7.000
725.529	-2.000
725.785	-2.000
726.042	1.000
726.298	-5.000
726.554	-2.000
726.811	-1.000
727.067	-7.000
727.323	-13.000
727.580	-3.000
727.836	-6.000
728.092	-6.000
728.349	-2.000
728.605	-3.000
728.861	-5.000
729.118	-4.000
729.374	1.000
729.630	-5.000
729.886	-2.000
730.143	-1.000
730.399	-2.000
730.655	-4.000
730.911	-3.000
731.168	-3.000
731.424	-5.000
731.680	-5.000
731.936	-1.000
732.193	-1.000
732.449	-5.000
732.705	1.000
732.961	-5.000
733.217	-3.000
733.473	2.000
733.730	-4.000
733.986	1.000
734.242	-1.000
734.498	-2.000
734.754	-3.000
735.010	-4.000
735.266	-1.000
735.522	-2.000
735.778	-4.000
736.035	1.000
736.291	-3.000
736.547	-1.000
736.803	0.000
737.059	-2.000
737.315	-1.000
737.571	-5.000
737.827	-8.000
738.083	-15.000
738.339	74.000
738.595	113.000
738.851	74.000
739.107	13.000
739.363	-9.000
739.619	-11.000
739.875	-5.000
740.131	-1.000
740.387	-5.000
740.643	-2.000
740.899	-7.000
741.155	2.000
741.411	-4.000
741.666	-5.000
741.922	-5.000
742.178	0.000
742.434	-2.000
742.690	-7.000
742.946	-3.000
743.202	-1.000
743.458	-4.000
743.714	-5.000
743.969	-6.000
744.225	-2.000
744.481	-2.000
744.737	-6.000
744.993	-3.000
745.249	-1.000
745.504	-2.000
745.760	-3.000
746.016	-2.000
746.272	0.000
746.527	-2.000
746.783	-3.000
747.039	-4.000
747.295	-5.000
747.550	-2.000
747.806	-3.000
748.062	-6.000
748.318	-3.000
748.573	-7.000
748.829	-3.000
749.085	0.000
749.340	-5.000
749.596	-6.000
749.852	-5.000
750.108	11.000
750.363	106.000
750.619	146.000
750.874	106.000
751.130	75.000
751.386	122.000
751.641	156.000
751.897	115.000
752.153	41.000
752.408	10.000
752.664	-5.000
752.919	-5.000
753.175	-4.000
753.430	-6.000
753.686	-4.000
753.942	1.000
754.197	-5.000
754.453	-4.000
754.708	0.000
754.964	2.000
755.219	0.000
755.475	-4.000
755.730	-3.000
755.986	-5.000
756.241	-6.000
756.497	-3.000
756.752	-6.000
757.008	0.000
757.263	1.000
757.519	-1.000
757.774	1.000
758.029	0.000
758.285	-2.000
758.540	0.000
758.796	-6.000
759.051	-2.000
759.307	-6.000
759.562	-2.000
759.817	-7.000
760.073	-8.000
760.328	-1.000
760.583	-3.000
760.839	-1.000
761.094	-2.000
761.349	-4.000
761.605	-4.000
761.860	-7.000
762.115	-2.000
762.371	-5.000
762.626	-4.000
762.881	-15.000
763.137	79.000
763.392	291.000
763.647	537.000
763.902	495.000
764.158	269.000
764.413	121.000
764.668	42.000
764.923	12.000
765.179	-3.000
765.434	-8.000
765.689	-5.000
765.944	-4.000
766.199	-4.000
766.455	-3.000
766.710	-3.000
766.965	-6.000
767.220	-3.000
767.475	-1.000
767.730	2.000
767.985	0.000
768.241	3.000
768.496	-2.000
768.751	-3.000
769.006	-2.000
769.261	-5.000
769.516	-5.000
769.771	-7.000
770.026	-4.000
770.281	-1.000
770.536	-5.000
770.791	-2.000
771.047	-2.000
771.302	-7.000
771.557	-3.000
771.812	-4.000
772.067	-11.000
772.322	61.000
772.577	159.000
772.832	154.000
773.087	63.000
773.342	19.000
773.597	1.000
773.852	-4.000
774.107	-4.000
774.361	-3.000
774.616	-3.000
774.871	-2.000
775.126	-4.000
775.381	-1.000
775.636	3.000
775.891	0.000
776.146	-4.000
776.401	2.000
776.656	-1.000
776.911	-3.000
777.165	1.000
777.420	2.000
777.675	-2.000
777.930	-2.000
778.185	0.000
778.440	2.000
778.694	1.000
778.949	3.000
779.204	0.000
779.459	-4.000
779.714	-2.000
779.968	-4.000
780.223	-5.000
780.478	-5.000
780.733	1.000
780.988	3.000
781.242	-2.000
781.497	-2.000
781.752	0.000
782.006	-2.000
782.261	-3.000
782.516	0.000
782.771	4.000
783.025	-3.000
783.280	-3.000
783.535	-7.000
783.789	-6.000
784.044	-8.000
784.299	-2.000
784.553	-3.000
784.808	2.000
785.063	3.000
785.317	-2.000
785.572	1.000
785.826	-1.000
786.081	0.000
786.336	-3.000
786.590	0.000
786.845	2.000
787.099	-1.000
787.354	-4.000
787.609	-2.000
787.863	0.000
788.118	-3.000
788.372	0.000
788.627	0.000
788.881	-1.000
789.136	-2.000
789.390	-4.000
789.645	0.000
789.899	-4.000
790.154	-2.000
790.408	-5.000
790.663	0.000
790.917	-2.000
791.172	-5.000
791.426	-2.000
791.680	-1.000
791.935	-2.000
792.189	-2.000
792.444	-2.000
792.698	4.000
792.953	-1.000
793.207	-5.000
793.461	-2.000
793.716	-5.000
793.970	3.000
794.224	-5.000
794.479	-7.000
794.733	11.000
794.987	94.000
795.242	119.000
795.496	67.000
795.750	20.000
796.005	0.000
796.259	-1.000
796.513	-8.000
796.768	-3.000
797.022	-2.000
797.276	-2.000
797.530	2.000
797.785	-7.000
798.039	-3.000
798.293	-3.000
798.547	-2.000
798.802	-4.000
799.056	-2.000
799.310	-2.000
799.564	-2.000
799.819	-2.000
800.073	-1.000
800.327	-5.000
800.581	-6.000
800.835	58.000
801.089	71.000
801.344	77.000
801.598	129.000
801.852	166.000
802.106	113.000
802.360	47.000
802.614	7.000
802.868	-5.000
803.122	-6.000
803.377	-4.000
803.631	-4.000
803.885	-6.000
804.139	-2.000
804.393	0.000
804.647	-3.000
804.901	0.000
805.155	-1.000
805.409	-2.000
805.663	-3.000
805.917	-2.000
806.171	-5.000
806.425	-4.000
806.679	-4.000
806.933	-5.000
807.187	-2.000
807.441	-3.000
807.695	-1.000
807.949	-5.000
808.203	1.000
808.457	-4.000
808.711	0.000
808.965	-1.000
809.219	-5.000
809.473	-5.000
809.726	-8.000
809.980	-9.000
810.234	4.000
810.488	85.000
810.742	160.000
810.996	148.000
811.250	133.000
811.504	240.000
811.757	486.000
812.011	552.000
812.265	355.000
812.519	179.000
812.773	70.000
813.027	26.000
813.280	1.000
813.534	-8.000
813.788	-3.000
814.042	-2.000
814.295	-1.000
814.549	0.000
814.803	1.000
815.057	-5.000
815.310	2.000
815.564	-5.000
815.818	-4.000
816.072	-4.000
816.325	-2.000
816.579	-4.000
816.833	1.000
817.086	-6.000
817.340	-5.000
817.594	-5.000
817.848	0.000
818.101	-2.000
818.355	-3.000
818.608	-3.000
818.862	1.000
819.116	2.000
819.369	-3.000
819.623	1.000
819.877	-3.000
820.130	-4.000
820.384	-3.000
820.637	-2.000
820.891	-2.000
821.144	-2.000
821.398	-2.000
821.652	0.000
821.905	-3.000
822.159	-3.000
822.412	-1.000
822.666	-4.000
822.919	2.000
823.173	-3.000
823.426	-2.000
823.680	-4.000
823.933	-4.000
824.187	-3.000
824.440	-1.000
824.694	-3.000
824.947	-1.000
825.201	1.000
825.454	-2.000
825.707	-2.000
825.961	-3.000
826.214	-7.000
826.468	-8.000
826.721	33.000
826.975	61.000
827.228	35.000
827.481	12.000
827.735	-4.000
827.988	-4.000
828.241	-4.000
828.495	-4.000
828.748	1.000
829.001	-2.000
829.255	-5.000
829.508	-4.000
829.761	-4.000
830.015	-3.000
830.268	-3.000
830.521	-2.000
830.775	1.000
831.028	-5.000
831.281	-8.000
831.534	0.000
831.788	-2.000
832.041	2.000
832.294	-2.000
832.547	-4.000
832.801	-2.000
833.054	1.000
833.307	-3.000
833.560	-5.000
833.813	0.000
834.067	0.000
834.320	-3.000
834.573	-4.000
834.826	-3.000
835.079	-3.000
835.332	-2.000
835.586	-1.000
835.839	-1.000
836.092	-3.000
836.345	-5.000
836.598	-1.000
836.851	-3.000
837.104	-8.000
837.357	-3.000
837.611	0.000
837.864	1.000
838.117	-1.000
838.370	-2.000
838.623	-5.000
838.876	-1.000
839.129	-2.000
839.382	-2.000
839.635	-4.000
839.888	-1.000
840.141	1.000
840.394	-1.000
840.647	-6.000
840.900	5.000
841.153	79.000
841.406	115.000
841.659	70.000
841.912	29.000
842.165	9.000
842.418	21.000
842.671	102.000
842.924	185.000
843.176	165.000
843.429	83.000
843.682	27.000
843.935	-2.000
844.188	-4.000
844.441	-7.000
844.694	-2.000
844.947	-3.000
845.200	-7.000
845.452	-8.000
845.705	-4.000
845.958	-2.000
846.211	0.000
846.464	0.000
846.717	-1.000
846.969	-2.000
847.222	-4.000
847.475	-2.000
847.728	-8.000
847.981	-2.000
848.233	-4.000
848.486	0.000
848.739	-1.000
848.992	-8.000
849.244	-1.000
849.497	-6.000
849.750	-6.000
850.003	3.000
850.255	-2.000
850.508	-2.000
850.761	2.000
851.013	-1.000
851.266	0.000
851.519	-2.000
851.771	0.000
852.024	-1.000
852.277	-12.000
852.529	19.000
852.782	37.000
853.035	23.000
853.287	3.000
853.540	-3.000
853.792	-4.000
854.045	-1.000
854.298	-3.000
854.550	-3.000
854.803	4.000
855.055	-5.000
855.308	-1.000
855.560	0.000
855.813	-3.000
856.066	-2.000
856.318	-3.000
856.571	-4.000
856.823	-2.000
857.076	2.000
857.328	-1.000
857.581	4.000
857.833	-5.000
858.086	1.000
858.338	-3.000
858.591	3.000
858.843	2.000
859.095	-1.000
859.348	-1.000
859.600	-2.000
859.853	-4.000
860.105	-3.000
860.358	-5.000
860.610	0.000
860.862	-1.000
861.115	1.000
861.367	-4.000
861.620	-1.000
861.872	1.000
862.124	-2.000
862.377	-3.000
862.629	2.000
862.881	0.000
863.134	0.000
863.386	-3.000
863.638	-1.000
863.891	-1.000
864.143	-1.000
864.395	-5.000
864.648	-3.000
864.900	-8.000
865.152	-3.000
865.404	-3.000
865.657	-3.000
865.909	-4.000
866.161	-5.000
866.413	4.000
866.666	2.000
866.918	-5.000
867.170	-1.000
867.422	-8.000
867.674	-7.000
867.927	-7.000
868.179	-2.000
868.431	-7.000
868.683	-3.000
868.935	-3.000
869.187	-4.000
869.440	0.000
869.692	-1.000
869.944	2.000
870.196	-2.000
870.448	-2.000
870.700	-1.000
870.952	-4.000
871.204	-1.000
871.457	-2.000
871.709	-2.000
871.961	0.000
872.213	-4.000
872.465	1.000
872.717	-4.000
872.969	0.000
873.221	-1.000
873.473	-1.000
873.725	-6.000
873.977	-4.000
874.229	0.000
874.481	0.000
874.733	-1.000
874.985	-3.000
875.237	-2.000
875.489	1.000
875.741	-1.000
875.993	-3.000
876.245	-6.000
876.497	-7.000
876.749	-3.000
877.001	-5.000
877.253	-7.000
877.504	-3.000
877.756	0.000
878.008	-5.000
878.260	0.000
878.512	-4.000
878.764	-5.000
879.016	-2.000
879.268	-3.000
879.519	-4.000
879.771	-5.000
880.023	-3.000
880.275	-2.000
880.527	-2.000
880.779	-1.000
881.030	-6.000
881.282	-1.000
881.534	-5.000
881.786	-3.000
882.038	1.000
882.289	0.000
882.541	0.000
882.793	-3.000
883.045	-2.000
883.296	-2.000
883.548	-3.000
883.800	1.000
884.052	-2.000
884.303	-3.000
884.555	-1.000
884.807	-2.000
885.058	-2.000
885.310	4.000
885.562	-3.000
885.813	-1.000
886.065	-3.000
886.317	-1.000
886.568	4.000
886.820	-1.000
887.072	0.000
887.323	-3.000
887.575	-3.000
887.826	-1.000
888.078	-2.000
888.330	-1.000
888.581	-2.000
888.833	-4.000
889.084	1.000
889.336	-1.000
889.587	-2.000
889.839	-2.000
890.091	-4.000
890.342	-4.000
890.594	-2.000
890.845	-1.000
891.097	0.000
891.348	-3.000
891.600	-3.000
891.851	0.000
892.103	3.000
892.354	-1.000
892.606	-3.000
892.857	2.000
893.108	-2.000
893.360	1.000
893.611	-1.000
893.863	-6.000
894.114	-1.000
894.366	2.000
894.617	0.000
894.868	-1.000
895.120	-5.000
895.371	-4.000
895.623	-5.000
895.874	-3.000
896.125	2.000
896.377	0.000
896.628	0.000
896.879	-3.000
897.131	-5.000
897.382	0.000
897.633	3.000
897.885	-4.000
898.136	-1.000
898.387	-2.000
898.639	-9.000
898.890	-3.000
899.141	-1.000
899.392	0.000
899.644	2.000
899.895	-7.000
900.146	-2.000
900.397	-6.000
900.649	-6.000
900.900	0.000
901.151	-2.000
901.402	-5.000
901.653	4.000
901.905	-5.000
902.156	0.000
902.407	0.000
902.658	-1.000
902.909	0.000
903.160	2.000
903.412	-1.000
903.663	-2.000
903.914	0.000
904.165	-3.000
904.416	-4.000
904.667	-4.000
904.918	-5.000
905.169	-4.000
905.421	-2.000
905.672	-4.000
905.923	-1.000
906.174	-4.000
906.425	-1.000
906.676	-3.000
906.927	-5.000
907.178	-2.000
907.429	-3.000
907.680	-6.000
907.931	-4.000
908.182	-4.000
908.433	-2.000
908.684	2.000
908.935	-1.000
909.186	-1.000
909.437	0.000
909.688	-7.000
909.939	-5.000
910.190	-4.000
910.441	-2.000
910.692	0.000
910.943	-2.000
911.194	-1.000
911.445	-3.000
911.695	0.000
911.946	-6.000
912.197	-9.000
912.448	-9.000
912.699	-10.000
912.950	46.000
913.201	98.000
913.452	98.000
913.702	54.000
913.953	14.000
914.204	-5.000
914.455	-5.000
914.706	-5.000
914.957	-2.000
915.207	-3.000
915.458	-7.000
915.709	-7.000
915.960	-8.000
916.210	-6.000
916.461	-3.000
916.712	0.000
916.963	-6.000
917.213	-1.000
917.464	-8.000
917.715	-2.000
917.966	-5.000
918.216	-3.000
918.467	-8.000
918.718	-3.000
918.969	-3.000
919.219	-2.000
919.470	-6.000
919.721	-3.000
919.971	-3.000
920.222	-2.000
920.473	-3.000
920.723	-1.000
920.974	-3.000
921.224	-8.000
921.475	-3.000
921.726	2.000
921.976	0.000
922.227	0.000
922.477	-4.000
922.728	-4.000
922.979	-3.000
923.229	-6.000
923.480	-3.000
923.730	-4.000
923.981	-6.000
924.231	-5.000
924.482	-3.000
924.732	-3.000
924.983	-3.000
925.233	-2.000
925.484	-1.000
925.734	-5.000
925.985	0.000
926.235	-2.000
926.486	-3.000
926.736	-3.000
926.987	-3.000
927.237	-7.000
927.488	-5.000
927.738	0.000
927.989	0.000
928.239	2.000
928.489	0.000
928.740	-5.000
928.990	-4.000
929.241	-4.000
929.491	-4.000
929.741	-6.000
929.992	-2.000
930.242	-4.000
930.492	-7.000
930.743	-4.000
930.993	-4.000
931.243	-7.000
931.494	-1.000
931.744	-5.000
931.994	-5.000
932.245	-2.000
932.495	-2.000
932.745	-8.000
932.996	1.000
933.246	-2.000
933.496	3.000
933.746	-1.000
933.997	0.000
934.247	-2.000
934.497	2.000
934.747	-1.000
934.998	-1.000
935.248	0.000
935.498	-1.000
935.748	-1.000
935.998	-3.000
936.249	-3.000
936.499	0.000
936.749	0.000
936.999	-2.000
937.249	1.000
937.499	2.000
937.750	-1.000
938.000	-6.000
938.250	0.000
938.500	0.000
938.750	-4.000
939.000	-4.000
939.250	-4.000
939.500	-4.000
939.750	-3.000
940.000	-1.000
940.251	-5.000
940.501	-7.000
940.751	-3.000
941.001	-4.000
941.251	-4.000
941.501	-4.000
941.751	-1.000
942.001	-4.000
942.251	0.000
942.501	-1.000
942.751	2.000
943.001	0.000
943.251	-4.000
943.501	-6.000
943.751	-3.000
944.001	-3.000
944.251	-4.000
944.501	-3.000
944.751	-3.000
945.000	-1.000
945.250	-7.000
945.500	-4.000
945.750	-3.000
946.000	-3.000
946.250	-1.000
946.500	-2.000
946.750	2.000
947.000	0.000
947.249	-2.000
947.499	-2.000
947.749	-4.000
947.999	-4.000
948.249	-6.000
948.499	-2.000
948.749	-4.000
948.998	-2.000
949.248	3.000
949.498	0.000
949.748	-7.000
949.997	-4.000
950.247	-2.000
950.497	-7.000
950.747	-6.000
950.997	-3.000
951.246	-1.000
951.496	0.000
951.746	0.000
951.995	2.000
952.245	0.000
952.495	2.000
952.745	-3.000
952.994	-6.000
953.244	-4.000
953.494	-4.000
953.743	-4.000
953.993	-3.000
954.243	-7.000
954.492	-1.000
954.742	-2.000
954.992	-2.000
955.241	-3.000
955.491	-3.000
955.740	-5.000
955.990	-4.000
956.240	-6.000
956.489	-1.000
956.739	-1.000
956.988	-5.000
957.238	-2.000
957.488	-4.000
957.737	1.000
957.987	-1.000
958.236	-1.000
958.486	-1.000
958.735	-5.000
958.985	-1.000
959.234	-3.000
959.484	-3.000
959.733	-3.000
959.983	0.000
960.232	-5.000
960.482	-3.000
960.731	-2.000
960.981	-1.000
961.230	0.000
961.480	-4.000
961.729	-1.000
961.978	-8.000
962.228	-4.000
962.477	-3.000
962.727	-1.000
962.976	0.000
963.226	-1.000
963.475	2.000
963.724	-1.000
963.974	1.000
964.223	-3.000
964.472	0.000
964.722	-7.000
964.971	-1.000
965.220	0.000
965.470	-2.000
965.719	-5.000
965.968	-4.000
966.218	-4.000
966.467	-4.000
966.716	-2.000
966.966	-7.000
967.215	-8.000
967.464	-3.000
967.713	-8.000
967.963	-5.000
968.212	-1.000
968.461	-3.000
968.710	-5.000
968.960	-2.000
969.209	-1.000
969.458	-1.000
969.707	-3.000
969.956	-6.000
970.206	-1.000
970.455	2.000
970.704	-4.000
970.953	-1.000
971.202	4.000
971.451	0.000
971.701	-1.000
971.950	1.000
972.199	-1.000
972.448	-3.000
972.697	0.000
972.946	0.000
973.195	-2.000
973.444	1.000
973.694	-5.000
973.943	-3.000
974.192	-2.000
974.441	-2.000
974.690	-3.000
974.939	-3.000
975.188	-3.000
975.437	1.000
975.686	1.000
975.935	-6.000
976.184	0.000
976.433	-3.000
976.682	-2.000
976.931	1.000
977.180	-2.000
977.429	-2.000
977.678	-2.000
977.927	-2.000
978.176	-1.000
978.425	-4.000
978.674	0.000
978.923	-4.000
979.172	-3.000
979.421	-3.000
979.670	-5.000
979.918	0.000
980.167	0.000
980.416	1.000
980.665	-5.000
980.914	-3.000
981.163	-2.000
981.412	-8.000
981.661	-4.000
981.909	2.000
982.158	-5.000
982.407	-2.000
982.656	-3.000
982.905	-1.000
983.154	-4.000
983.402	0.000
983.651	-2.000
983.900	-6.000
984.149	-3.000
984.398	-2.000
984.646	-9.000
984.895	-4.000
985.144	-1.000
985.393	-1.000
985.641	-1.000
985.890	1.000
986.139	-3.000
986.387	0.000
986.636	1.000
986.885	-3.000
987.134	-3.000
987.382	-3.000
987.631	2.000
987.880	-1.000
988.128	-2.000
988.377	-5.000
988.626	-2.000
988.874	0.000
989.123	-4.000
989.372	-5.000
989.620	-4.000
989.869	1.000
990.117	-6.000
990.366	-3.000
990.615	-1.000
990.863	-3.000
991.112	-3.000
991.360	3.000
991.609	-4.000
991.857	1.000
992.106	-1.000
992.355	-1.000
992.603	-1.000
992.852	1.000
993.100	-2.000
993.349	0.000
993.597	-2.000
993.846	-3.000
994.094	-2.000
994.343	-3.000
994.591	-2.000
994.840	-3.000
995.088	-5.000
995.336	-3.000
995.585	-2.000
995.833	-1.000
996.082	-4.000
996.330	-1.000
996.579	1.000
996.827	-2.000
997.075	-2.000
997.324	-4.000
997.572	0.000
997.821	-1.000
998.069	0.000
998.317	0.000
998.566	-1.000
998.814	-2.000
999.062	1.000
999.311	-1.000
999.559	-7.000
999.807	-3.000
1000.056	-7.000
1000.304	-1.000
1000.552	-4.000
1000.801	-4.000
1001.049	-4.000
1001.297	-5.000
1001.546	0.000
1001.794	-3.000
1002.042	-1.000
1002.290	-2.000
1002.539	-1.000
1002.787	0.000
1003.035	-2.000
1003.283	-2.000
1003.531	5.000
1003.780	-7.000
1004.028	-2.000
1004.276	-1.000
1004.524	-4.000
1004.772	1.000
1005.021	-2.000
1005.269	0.000
1005.517	-8.000
1005.765	-1.000
1006.013	-3.000
1006.261	-3.000
1006.509	2.000
1006.758	2.000
1007.006	1.000
1007.254	-8.000
1007.502	-3.000
1007.750	-4.000
1007.998	-2.000
1008.246	0.000
1008.494	-5.000
1008.742	-6.000
1008.990	-6.000
1009.238	-4.000
1009.486	-4.000
1009.735	-6.000
1009.983	-2.000
1010.231	-3.000
1010.479	1.000
1010.727	3.000
1010.975	-1.000
1011.223	6.000
1011.471	-1.000
1011.719	-4.000
1011.967	-1.000
1012.214	3.000
1012.462	-2.000
1012.710	1.000
1012.958	-3.000
1013.206	4.000
1013.454	1.000
1013.702	0.000
1013.950	-3.000
1014.198	-2.000
1014.446	-4.000
1014.694	-5.000
1014.942	-3.000
1015.189	0.000
1015.437	0.000
1015.685	0.000
1015.933	-1.000
1016.181	-1.000
1016.429	-3.000
1016.677	-1.000
1016.924	-1.000
1017.172	-4.000
1017.420	-4.000
1017.668	1.000
1017.916	2.000
1018.163	-6.000
1018.411	-4.000
1018.659	0.000
1018.907	-4.000
1019.155	-2.000
1019.402	-2.000
1019.650	-5.000
1019.898	-3.000
1020.145	-1.000
1020.393	-4.000
1020.641	-2.000
1020.889	1.000
1021.136	-1.000
1021.384	-4.000
1021.632	-2.000
1021.879	-3.000
1022.127	-5.000
1022.375	-2.000
1022.622	-2.000
1022.870	-5.000
1023.118	-3.000
1023.365	1.000
1023.613	-6.000
1023.861	-5.000
1024.108	-7.000
1024.356	-1.000
1024.603	-6.000
1024.851	-3.000
1025.099	-5.000
1025.346	-5.000
1025.594	-2.000
1025.841	2.000
1026.089	-5.000
1026.336	-7.000
1026.584	-2.000
1026.832	-1.000
1027.079	3.000
1027.327	-3.000
1027.574	0.000
1027.822	-5.000
1028.069	-1.000
1028.317	-2.000
1028.564	0.000
1028.812	-2.000
1029.059	-3.000
1029.306	0.000
1029.554	0.000
1029.801	0.000
1030.049	0.000
1030.296	-1.000
1030.544	0.000
1030.791	-1.000
1031.039	2.000
1031.286	-2.000
1031.533	1.000
1031.781	0.000
1032.028	2.000
1032.276	-8.000
1032.523	2.000
1032.770	-4.000
1033.018	-1.000
1033.265	-2.000
1033.512	-4.000
1033.760	-2.000
1034.007	0.000
1034.254	1.000
1034.502	3.000
1034.749	0.000
1034.996	4.000
1035.243	-4.000
1035.491	-2.000
1035.738	2.000
1035.985	-3.000
1036.233	1.000
1036.480	-2.000
1036.727	-11.000
1036.974	-4.000
1037.222	-2.000
1037.469	-3.000
1037.716	-3.000
1037.963	1.000
1038.210	-4.000
1038.458	-4.000
1038.705	-3.000
1038.952	-3.000
1039.199	-2.000
1039.446	-3.000
1039.693	-1.000
1039.941	-5.000
1040.188	-7.000
1040.435	0.000
1040.682	1.000
1040.929	0.000
1041.176	2.000
1041.423	-1.000
1041.671	2.000
1041.918	-3.000
1042.165	-1.000
1042.412	-3.000
1042.659	2.000
1042.906	-2.000
1043.153	-6.000
1043.400	-5.000
1043.647	-6.000
1043.894	-8.000
1044.141	1.000
1044.388	-2.000
1044.635	-3.000
1044.882	-1.000
1045.129	-5.000
1045.376	-3.000
1045.623	-1.000
1045.870	1.000
1046.117	2.000
1046.364	-2.000
1046.611	0.000
1046.858	-4.000
1047.105	-4.000
1047.352	-4.000
1047.599	0.000
1047.846	3.000
1048.093	-1.000
1048.340	-1.000
1048.587	-2.000
1048.833	-3.000
1049.080	-4.000
1049.327	0.000
1049.574	2.000
1049.821	2.000
1050.068	0.000
1050.315	-3.000
1050.561	-1.000
1050.808	-5.000
1051.055	-3.000
1051.302	-2.000
1051.549	-3.000
1051.796	-2.000
1052.042	-4.000
1052.289	-2.000
1052.536	2.000
1052.783	-3.000
1053.030	1.000
1053.276	-4.000
1053.523	-4.000
1053.770	-1.000
1054.017	3.000
1054.263	-3.000
1054.510	-3.000
1054.757	-5.000
1055.003	-1.000
1055.250	-5.000
1055.497	-6.000
1055.744	2.000
1055.990	-2.000
1056.237	-5.000
1056.484	-1.000
1056.730	0.000
1056.977	-2.000
1057.224	2.000
1057.470	-5.000
1057.717	3.000
1057.963	4.000
1058.210	-5.000
1058.457	-1.000
1058.703	-1.000
1058.950	1.000
1059.197	3.000
1059.443	3.000
1059.690	2.000
1059.936	1.000
1060.183	5.000
1060.429	1.000
1060.676	-3.000
1060.922	1.000
1061.169	-1.000
1061.416	-2.000
1061.662	2.000
1061.909	0.000
1062.155	-4.000
1062.402	-2.000
1062.648	-3.000
1062.895	0.000
1063.141	-7.000
1063.387	-8.000
1063.634	-3.000
1063.880	0.000
1064.127	-1.000
1064.373	-1.000
1064.620	1.000
1064.866	0.000
1065.113	5.000
1065.359	0.000
1065.605	2.000
1065.852	3.000
1066.098	0.000
1066.345	-5.000
1066.591	-3.000
1066.837	0.000
1067.084	-6.000
1067.330	-2.000
1067.576	-4.000
1067.823	3.000
1068.069	-1.000
1068.315	-3.000
1068.562	2.000
1068.808	2.000
1069.054	-4.000
1069.301	-2.000
1069.547	-2.000
1069.793	-2.000
1070.040	2.000
1070.286	-1.000
1070.532	-2.000
1070.778	-2.000
1071.025	-4.000
1071.271	1.000
1071.517	-5.000
1071.763	-1.000
1072.009	-3.000
1072.256	-1.000
1072.502	5.000
1072.748	-3.000
1072.994	1.000
1073.240	0.000
1073.487	-1.000
1073.733	-2.000
1073.979	3.000
1074.225	1.000
1074.471	1.000
1074.717	-1.000
1074.964	-1.000
1075.210	2.000
1075.456	-1.000
1075.702	0.000
1075.948	-4.000
1076.194	-2.000
1076.440	-1.000
1076.686	-2.000
1076.932	-3.000
1077.178	-1.000
1077.425	-1.000
1077.671	2.000
1077.917	-4.000
1078.163	-1.000
1078.409	-5.000
1078.655	2.000
1078.901	-3.000
1079.147	-2.000
1079.393	-4.000
1079.639	-1.000
1079.885	-2.000
1080.131	-5.000
1080.377	-3.000
1080.623	0.000
1080.869	-1.000
1081.115	-2.000
1081.361	-1.000
1081.606	-6.000
1081.852	-4.000
1082.098	2.000
1082.344	-1.000
1082.590	1.000
1082.836	-2.000
1083.082	3.000
1083.328	2.000
1083.574	-3.000
1083.820	-2.000
1084.065	-1.000
1084.311	-1.000
1084.557	-4.000
1084.803	0.000
1085.049	1.000
1085.295	-5.000
1085.541	-2.000
1085.786	-2.000
1086.032	-1.000
1086.278	-1.000
1086.524	0.000
1086.770	0.000
1087.015	-1.000
1087.261	3.000
1087.507	-4.000
1087.753	-3.000
1087.998	-6.000
1088.244	-4.000
1088.490	-1.000
1088.736	-3.000
1088.981	0.000
1089.227	1.000
1089.473	-1.000
1089.719	-2.000
1089.964	3.000
1090.210	1.000
1090.456	-2.000
1090.701	1.000
1090.947	-1.000
1091.193	-4.000
1091.438	-2.000
1091.684	0.000
1091.930	-5.000
1092.175	1.000
1092.421	-3.000
1092.666	0.000
1092.912	1.000
1093.158	-2.000
1093.403	-1.000
1093.649	3.000
1093.894	1.000
1094.140	-1.000
1094.386	-2.000
1094.631	0.000
1094.877	-6.000
1095.122	-4.000
1095.368	-2.000
1095.613	-4.000
1095.859	1.000
1096.104	-3.000
1096.350	-1.000
1096.595	3.000
1096.841	-3.000
1097.086	1.000
1097.332	2.000
1097.577	1.000
1097.823	-2.000
1098.068	3.000
1098.314	1.000
1098.559	0.000
1098.805	-2.000
1099.050	1.000
1099.295	2.000
1099.541	0.000
1099.786	-3.000
+++++End Spectral Data+++++
