Spectrometer Data
EN
------------------------------
Saving Time:Wed, Jan 21, 2026 14:05:00
Device Name:Aurora 4000
Version Info:V9_84
Serial Number:220120190816098402001100
Integral Time(æs):5000
Avg Count:1
Smoothness:0
Data Type:(0 1)Wavelength-Delete Dark
X-Axis Unit:nm
Y-Axis Unit:counts
Pixel Count:3482
Reserve0:250
Other Description:
+++++Begin Spectral Data+++++
200.149	-3.000
200.421	-6.000
200.693	-3.000
200.966	1.000
201.238	-4.000
201.510	-1.000
201.782	-4.000
202.054	-5.000
202.326	-4.000
202.598	-4.000
202.870	3.000
203.142	-4.000
203.414	-3.000
203.686	1.000
203.958	-3.000
204.230	-2.000
204.502	-1.000
204.774	-3.000
205.046	-1.000
205.318	-3.000
205.590	-2.000
205.861	1.000
206.133	-7.000
206.405	1.000
206.677	0.000
206.949	-2.000
207.221	-3.000
207.493	-1.000
207.765	2.000
208.037	-3.000
208.308	3.000
208.580	-3.000
208.852	-4.000
209.124	-5.000
209.396	-5.000
209.668	-5.000
209.939	-5.000
210.211	1.000
210.483	-7.000
210.755	-5.000
211.027	-3.000
211.298	-2.000
211.570	3.000
211.842	-1.000
212.114	-4.000
212.385	-4.000
212.657	0.000
212.929	-5.000
213.200	-1.000
213.472	0.000
213.744	-2.000
214.016	-4.000
214.287	-4.000
214.559	0.000
214.831	-3.000
215.102	-2.000
215.374	-2.000
215.645	-2.000
215.917	2.000
216.189	1.000
216.460	3.000
216.732	-3.000
217.004	-3.000
217.275	-6.000
217.547	-5.000
217.818	-2.000
218.090	2.000
218.361	-1.000
218.633	0.000
218.904	-2.000
219.176	1.000
219.448	2.000
219.719	-3.000
219.991	-2.000
220.262	1.000
220.534	-1.000
220.805	-1.000
221.076	0.000
221.348	-7.000
221.619	4.000
221.891	1.000
222.162	2.000
222.434	-1.000
222.705	2.000
222.977	-4.000
223.248	-8.000
223.519	-3.000
223.791	-2.000
224.062	-6.000
224.333	3.000
224.605	0.000
224.876	2.000
225.148	-3.000
225.419	3.000
225.690	-1.000
225.962	-1.000
226.233	-4.000
226.504	-2.000
226.775	0.000
227.047	-5.000
227.318	-3.000
227.589	-1.000
227.861	-1.000
228.132	0.000
228.403	2.000
228.674	-3.000
228.946	-4.000
229.217	-2.000
229.488	-3.000
229.759	-1.000
230.030	-3.000
230.302	1.000
230.573	-4.000
230.844	2.000
231.115	0.000
231.386	0.000
231.657	2.000
231.929	-2.000
232.200	6.000
232.471	-3.000
232.742	-1.000
233.013	-7.000
233.284	-2.000
233.555	0.000
233.826	-1.000
234.097	-7.000
234.369	1.000
234.640	-2.000
234.911	-1.000
235.182	-3.000
235.453	-3.000
235.724	-4.000
235.995	-5.000
236.266	-2.000
236.537	0.000
236.808	3.000
237.079	0.000
237.350	-3.000
237.621	1.000
237.892	-2.000
238.163	5.000
238.434	-2.000
238.705	4.000
238.975	1.000
239.246	-1.000
239.517	0.000
239.788	0.000
240.059	6.000
240.330	-6.000
240.601	-2.000
240.872	-5.000
241.143	0.000
241.413	-4.000
241.684	3.000
241.955	-2.000
242.226	2.000
242.497	3.000
242.768	1.000
243.038	-2.000
243.309	2.000
243.580	-1.000
243.851	5.000
244.122	-2.000
244.392	0.000
244.663	1.000
244.934	-1.000
245.205	0.000
245.475	-7.000
245.746	-1.000
246.017	0.000
246.288	-2.000
246.558	1.000
246.829	-2.000
247.100	-1.000
247.370	-3.000
247.641	3.000
247.912	2.000
248.182	0.000
248.453	1.000
248.724	0.000
248.994	-4.000
249.265	0.000
249.535	-2.000
249.806	-3.000
250.077	-5.000
250.347	-4.000
250.618	4.000
250.888	2.000
251.159	3.000
251.430	-2.000
251.700	0.000
251.971	-1.000
252.241	1.000
252.512	1.000
252.782	3.000
253.053	-2.000
253.323	1.000
253.594	3.000
253.864	0.000
254.135	2.000
254.405	-2.000
254.676	2.000
254.946	-1.000
255.216	3.000
255.487	3.000
255.757	-3.000
256.028	-1.000
256.298	2.000
256.569	3.000
256.839	-2.000
257.109	-4.000
257.380	2.000
257.650	-2.000
257.920	-3.000
258.191	1.000
258.461	2.000
258.731	-2.000
259.002	-5.000
259.272	-1.000
259.542	1.000
259.813	-2.000
260.083	-1.000
260.353	-2.000
260.624	-5.000
260.894	4.000
261.164	2.000
261.434	-1.000
261.705	-2.000
261.975	-5.000
262.245	1.000
262.515	1.000
262.786	3.000
263.056	1.000
263.326	6.000
263.596	4.000
263.866	4.000
264.137	2.000
264.407	2.000
264.677	0.000
264.947	2.000
265.217	2.000
265.487	1.000
265.757	-7.000
266.027	3.000
266.298	1.000
266.568	-2.000
266.838	-1.000
267.108	3.000
267.378	-2.000
267.648	-1.000
267.918	1.000
268.188	0.000
268.458	-1.000
268.728	2.000
268.998	-2.000
269.268	-5.000
269.538	0.000
269.808	1.000
270.078	-1.000
270.348	-1.000
270.618	-2.000
270.888	0.000
271.158	-3.000
271.428	-1.000
271.698	3.000
271.968	4.000
272.238	-2.000
272.508	-3.000
272.778	-2.000
273.048	-3.000
273.318	0.000
273.587	-1.000
273.857	0.000
274.127	3.000
274.397	-2.000
274.667	-4.000
274.937	-2.000
275.207	0.000
275.476	0.000
275.746	-5.000
276.016	1.000
276.286	1.000
276.556	-3.000
276.826	0.000
277.095	-2.000
277.365	-1.000
277.635	-4.000
277.905	-2.000
278.174	-5.000
278.444	1.000
278.714	-5.000
278.984	-8.000
279.253	-2.000
279.523	1.000
279.793	-4.000
280.062	-5.000
280.332	-3.000
280.602	-2.000
280.871	-2.000
281.141	-1.000
281.411	-4.000
281.680	-4.000
281.950	3.000
282.220	-5.000
282.489	-7.000
282.759	2.000
283.029	-2.000
283.298	-3.000
283.568	-2.000
283.837	-3.000
284.107	0.000
284.376	-3.000
284.646	-4.000
284.916	3.000
285.185	-3.000
285.455	-4.000
285.724	-4.000
285.994	-7.000
286.263	-1.000
286.533	-3.000
286.802	-1.000
287.072	-3.000
287.341	-8.000
287.611	-3.000
287.880	-3.000
288.149	-2.000
288.419	0.000
288.688	-4.000
288.958	-2.000
289.227	-5.000
289.497	-3.000
289.766	-3.000
290.035	0.000
290.305	-1.000
290.574	1.000
290.844	-6.000
291.113	-1.000
291.382	-6.000
291.652	-5.000
291.921	-4.000
292.190	-4.000
292.460	-3.000
292.729	-2.000
292.998	-3.000
293.268	-1.000
293.537	-2.000
293.806	-5.000
294.075	-3.000
294.345	-1.000
294.614	-2.000
294.883	-2.000
295.152	-6.000
295.422	-5.000
295.691	-3.000
295.960	-1.000
296.229	-7.000
296.498	-2.000
296.768	-2.000
297.037	-1.000
297.306	-5.000
297.575	-3.000
297.844	-3.000
298.114	-3.000
298.383	-4.000
298.652	-6.000
298.921	0.000
299.190	-5.000
299.459	-5.000
299.728	-5.000
299.997	-3.000
300.266	-2.000
300.536	-5.000
300.805	-1.000
301.074	-5.000
301.343	-6.000
301.612	-2.000
301.881	-2.000
302.150	-4.000
302.419	-3.000
302.688	-2.000
302.957	-3.000
303.226	-4.000
303.495	-6.000
303.764	-5.000
304.033	-4.000
304.302	-6.000
304.571	-5.000
304.840	-1.000
305.109	-6.000
305.378	-2.000
305.646	-5.000
305.915	-3.000
306.184	-2.000
306.453	-5.000
306.722	-5.000
306.991	-11.000
307.260	-7.000
307.529	-4.000
307.798	-5.000
308.066	1.000
308.335	-6.000
308.604	-1.000
308.873	-1.000
309.142	-3.000
309.411	-5.000
309.679	-2.000
309.948	-5.000
310.217	-1.000
310.486	-4.000
310.755	-6.000
311.023	-2.000
311.292	-7.000
311.561	-5.000
311.830	-4.000
312.098	-2.000
312.367	-7.000
312.636	-5.000
312.904	-6.000
313.173	-4.000
313.442	-2.000
313.711	-5.000
313.979	-5.000
314.248	-6.000
314.517	-5.000
314.785	-2.000
315.054	-4.000
315.322	-6.000
315.591	-4.000
315.860	0.000
316.128	-6.000
316.397	-6.000
316.665	-8.000
316.934	-1.000
317.203	-6.000
317.471	-3.000
317.740	-5.000
318.008	-8.000
318.277	-1.000
318.545	-10.000
318.814	-6.000
319.082	-6.000
319.351	-7.000
319.619	-6.000
319.888	-3.000
320.156	-2.000
320.425	-7.000
320.693	-3.000
320.962	-3.000
321.230	-3.000
321.499	-5.000
321.767	-2.000
322.036	-6.000
322.304	-5.000
322.573	-3.000
322.841	-1.000
323.109	-3.000
323.378	-3.000
323.646	-1.000
323.914	-5.000
324.183	-5.000
324.451	-7.000
324.720	-11.000
324.988	-2.000
325.256	-6.000
325.525	-4.000
325.793	-1.000
326.061	-1.000
326.330	-2.000
326.598	-3.000
326.866	-3.000
327.134	-3.000
327.403	-8.000
327.671	-1.000
327.939	-4.000
328.207	-8.000
328.476	-4.000
328.744	-5.000
329.012	-4.000
329.280	-3.000
329.549	2.000
329.817	-7.000
330.085	-3.000
330.353	-4.000
330.621	-1.000
330.889	-3.000
331.158	-3.000
331.426	-3.000
331.694	-8.000
331.962	-6.000
332.230	-7.000
332.498	-7.000
332.766	-2.000
333.035	-6.000
333.303	-5.000
333.571	-5.000
333.839	-8.000
334.107	-3.000
334.375	-2.000
334.643	-5.000
334.911	-4.000
335.179	-4.000
335.447	-2.000
335.715	-8.000
335.983	-4.000
336.251	-7.000
336.519	-7.000
336.787	-2.000
337.055	-8.000
337.323	-5.000
337.591	-2.000
337.859	-1.000
338.127	-9.000
338.395	-4.000
338.663	-5.000
338.931	-5.000
339.199	-3.000
339.467	-5.000
339.734	-4.000
340.002	-3.000
340.270	-2.000
340.538	-2.000
340.806	-5.000
341.074	0.000
341.342	-4.000
341.610	-2.000
341.877	-3.000
342.145	-3.000
342.413	-3.000
342.681	-5.000
342.949	-5.000
343.216	-4.000
343.484	-5.000
343.752	0.000
344.020	-3.000
344.288	-4.000
344.555	-3.000
344.823	-6.000
345.091	-4.000
345.359	-2.000
345.626	-4.000
345.894	-4.000
346.162	-7.000
346.429	-4.000
346.697	-1.000
346.965	-3.000
347.232	-7.000
347.500	-5.000
347.768	-1.000
348.035	-1.000
348.303	-4.000
348.571	-6.000
348.838	-3.000
349.106	-7.000
349.374	-5.000
349.641	-7.000
349.909	-2.000
350.176	-3.000
350.444	-6.000
350.712	-4.000
350.979	-6.000
351.247	-5.000
351.514	-5.000
351.782	-7.000
352.049	-5.000
352.317	-3.000
352.584	-6.000
352.852	-4.000
353.119	-9.000
353.387	-1.000
353.654	-5.000
353.922	-8.000
354.189	-5.000
354.457	-7.000
354.724	-6.000
354.992	-3.000
355.259	-6.000
355.526	1.000
355.794	-3.000
356.061	-5.000
356.329	-9.000
356.596	-8.000
356.863	-8.000
357.131	-4.000
357.398	-5.000
357.666	-2.000
357.933	-2.000
358.200	-10.000
358.468	-5.000
358.735	-4.000
359.002	-3.000
359.270	-2.000
359.537	-1.000
359.804	-2.000
360.071	-3.000
360.339	-3.000
360.606	-5.000
360.873	-6.000
361.141	-5.000
361.408	-6.000
361.675	-3.000
361.942	-4.000
362.210	4.000
362.477	-2.000
362.744	-2.000
363.011	-6.000
363.278	-3.000
363.546	-1.000
363.813	-1.000
364.080	-5.000
364.347	-5.000
364.614	-5.000
364.881	-3.000
365.148	2.000
365.416	0.000
365.683	-3.000
365.950	-1.000
366.217	-5.000
366.484	-7.000
366.751	-5.000
367.018	-3.000
367.285	-2.000
367.552	-4.000
367.819	-4.000
368.086	-4.000
368.354	-4.000
368.621	-2.000
368.888	1.000
369.155	-2.000
369.422	1.000
369.689	-3.000
369.956	-1.000
370.223	-7.000
370.490	-3.000
370.757	-5.000
371.024	-5.000
371.290	-3.000
371.557	-4.000
371.824	-6.000
372.091	-5.000
372.358	-3.000
372.625	1.000
372.892	-4.000
373.159	-3.000
373.426	0.000
373.693	-5.000
373.960	3.000
374.226	-3.000
374.493	-4.000
374.760	-6.000
375.027	-6.000
375.294	-6.000
375.561	-9.000
375.827	-8.000
376.094	-2.000
376.361	-5.000
376.628	-5.000
376.895	-1.000
377.161	1.000
377.428	-4.000
377.695	0.000
377.962	0.000
378.228	3.000
378.495	2.000
378.762	-1.000
379.029	-10.000
379.295	1.000
379.562	0.000
379.829	-4.000
380.095	-3.000
380.362	-2.000
380.629	-5.000
380.896	-2.000
381.162	1.000
381.429	-2.000
381.695	-1.000
381.962	-1.000
382.229	-7.000
382.495	-3.000
382.762	1.000
383.029	-2.000
383.295	-6.000
383.562	-8.000
383.828	-2.000
384.095	0.000
384.361	-3.000
384.628	0.000
384.895	-1.000
385.161	3.000
385.428	-3.000
385.694	-3.000
385.961	-2.000
386.227	0.000
386.494	-2.000
386.760	2.000
387.027	-3.000
387.293	-2.000
387.560	0.000
387.826	-3.000
388.092	0.000
388.359	0.000
388.625	-1.000
388.892	-3.000
389.158	-3.000
389.425	0.000
389.691	-3.000
389.957	-2.000
390.224	1.000
390.490	0.000
390.757	2.000
391.023	-2.000
391.289	1.000
391.556	5.000
391.822	1.000
392.088	-1.000
392.355	0.000
392.621	1.000
392.887	4.000
393.154	-1.000
393.420	1.000
393.686	-2.000
393.952	-1.000
394.219	-3.000
394.485	2.000
394.751	-1.000
395.017	-2.000
395.284	0.000
395.550	-4.000
395.816	-2.000
396.082	-3.000
396.349	1.000
396.615	0.000
396.881	-1.000
397.147	0.000
397.413	-4.000
397.679	-7.000
397.946	-4.000
398.212	1.000
398.478	0.000
398.744	-1.000
399.010	0.000
399.276	-2.000
399.542	2.000
399.808	1.000
400.075	0.000
400.341	1.000
400.607	-2.000
400.873	-1.000
401.139	3.000
401.405	-2.000
401.671	0.000
401.937	1.000
402.203	3.000
402.469	4.000
402.735	-1.000
403.001	-3.000
403.267	-2.000
403.533	3.000
403.799	1.000
404.065	2.000
404.331	3.000
404.597	-1.000
404.863	2.000
405.129	1.000
405.395	3.000
405.661	-2.000
405.927	0.000
406.192	-2.000
406.458	0.000
406.724	-3.000
406.990	-6.000
407.256	-4.000
407.522	-4.000
407.788	-1.000
408.054	-1.000
408.319	4.000
408.585	0.000
408.851	2.000
409.117	-1.000
409.383	-2.000
409.649	0.000
409.914	1.000
410.180	1.000
410.446	-2.000
410.712	1.000
410.977	1.000
411.243	5.000
411.509	-1.000
411.775	-1.000
412.040	2.000
412.306	3.000
412.572	1.000
412.838	-3.000
413.103	0.000
413.369	2.000
413.635	0.000
413.900	-1.000
414.166	3.000
414.432	0.000
414.697	1.000
414.963	-3.000
415.229	2.000
415.494	3.000
415.760	-2.000
416.025	-6.000
416.291	0.000
416.557	2.000
416.822	-2.000
417.088	0.000
417.353	-3.000
417.619	1.000
417.884	-4.000
418.150	-1.000
418.416	-3.000
418.681	1.000
418.947	-1.000
419.212	1.000
419.478	-4.000
419.743	-2.000
420.009	-2.000
420.274	0.000
420.540	2.000
420.805	-2.000
421.071	0.000
421.336	2.000
421.601	-3.000
421.867	-1.000
422.132	3.000
422.398	1.000
422.663	-5.000
422.929	-3.000
423.194	0.000
423.459	-1.000
423.725	-3.000
423.990	-1.000
424.256	-2.000
424.521	-2.000
424.786	-3.000
425.052	-1.000
425.317	-4.000
425.582	2.000
425.848	-4.000
426.113	-4.000
426.378	1.000
426.643	1.000
426.909	0.000
427.174	-1.000
427.439	1.000
427.705	-3.000
427.970	2.000
428.235	0.000
428.500	1.000
428.766	0.000
429.031	-3.000
429.296	-4.000
429.561	-3.000
429.826	-1.000
430.092	-1.000
430.357	-3.000
430.622	1.000
430.887	-2.000
431.152	-2.000
431.417	-3.000
431.683	2.000
431.948	-2.000
432.213	4.000
432.478	4.000
432.743	-4.000
433.008	-2.000
433.273	1.000
433.538	2.000
433.803	-2.000
434.069	-2.000
434.334	0.000
434.599	-1.000
434.864	0.000
435.129	-2.000
435.394	-4.000
435.659	2.000
435.924	0.000
436.189	-3.000
436.454	0.000
436.719	-3.000
436.984	0.000
437.249	-1.000
437.514	2.000
437.779	0.000
438.044	-3.000
438.309	-4.000
438.574	1.000
438.838	0.000
439.103	-6.000
439.368	-1.000
439.633	0.000
439.898	-3.000
440.163	-3.000
440.428	-4.000
440.693	-1.000
440.958	-7.000
441.222	-3.000
441.487	0.000
441.752	-5.000
442.017	-3.000
442.282	-4.000
442.547	-2.000
442.811	2.000
443.076	-2.000
443.341	-1.000
443.606	-1.000
443.871	0.000
444.135	1.000
444.400	1.000
444.665	-4.000
444.930	-3.000
445.194	2.000
445.459	3.000
445.724	3.000
445.989	-4.000
446.253	0.000
446.518	-2.000
446.783	1.000
447.047	-1.000
447.312	1.000
447.577	0.000
447.841	1.000
448.106	-3.000
448.371	-7.000
448.635	-6.000
448.900	-8.000
449.165	-2.000
449.429	-1.000
449.694	-7.000
449.958	-4.000
450.223	-3.000
450.488	-6.000
450.752	-2.000
451.017	-3.000
451.281	-5.000
451.546	-1.000
451.810	-5.000
452.075	-3.000
452.339	-3.000
452.604	-1.000
452.868	2.000
453.133	-2.000
453.397	-6.000
453.662	-6.000
453.926	-1.000
454.191	0.000
454.455	-7.000
454.720	-4.000
454.984	-4.000
455.249	-3.000
455.513	-2.000
455.778	-3.000
456.042	-1.000
456.306	-5.000
456.571	1.000
456.835	-2.000
457.100	-3.000
457.364	-4.000
457.628	-4.000
457.893	-1.000
458.157	-3.000
458.421	-5.000
458.686	-5.000
458.950	-1.000
459.214	-6.000
459.479	-3.000
459.743	-7.000
460.007	-7.000
460.272	-5.000
460.536	-1.000
460.800	0.000
461.064	-3.000
461.329	-4.000
461.593	-1.000
461.857	-7.000
462.121	-4.000
462.386	-5.000
462.650	-1.000
462.914	-3.000
463.178	-3.000
463.442	-2.000
463.707	-4.000
463.971	-7.000
464.235	0.000
464.499	-3.000
464.763	-4.000
465.027	-3.000
465.292	-2.000
465.556	-5.000
465.820	0.000
466.084	-4.000
466.348	-2.000
466.612	0.000
466.876	0.000
467.140	2.000
467.404	1.000
467.668	-6.000
467.933	-3.000
468.197	4.000
468.461	-3.000
468.725	-6.000
468.989	-6.000
469.253	-1.000
469.517	-3.000
469.781	-2.000
470.045	-4.000
470.309	-3.000
470.573	-5.000
470.837	-2.000
471.101	0.000
471.365	2.000
471.629	-1.000
471.892	-5.000
472.156	1.000
472.420	-1.000
472.684	2.000
472.948	-2.000
473.212	-1.000
473.476	-2.000
473.740	-4.000
474.004	-2.000
474.268	0.000
474.531	-1.000
474.795	1.000
475.059	-3.000
475.323	-2.000
475.587	-2.000
475.851	0.000
476.114	-3.000
476.378	-5.000
476.642	-3.000
476.906	-7.000
477.170	-1.000
477.433	-4.000
477.697	-3.000
477.961	-3.000
478.225	0.000
478.488	-2.000
478.752	-3.000
479.016	-8.000
479.280	-7.000
479.543	-6.000
479.807	-4.000
480.071	-2.000
480.334	-1.000
480.598	-6.000
480.862	-1.000
481.125	-3.000
481.389	-2.000
481.653	-1.000
481.916	2.000
482.180	-3.000
482.444	-6.000
482.707	-11.000
482.971	-3.000
483.234	-7.000
483.498	-5.000
483.762	-6.000
484.025	-2.000
484.289	-5.000
484.552	1.000
484.816	-5.000
485.079	-5.000
485.343	-3.000
485.607	-6.000
485.870	-9.000
486.134	-7.000
486.397	-2.000
486.661	-6.000
486.924	-5.000
487.188	-2.000
487.451	-5.000
487.715	1.000
487.978	-6.000
488.241	-4.000
488.505	-2.000
488.768	-3.000
489.032	0.000
489.295	-2.000
489.559	-2.000
489.822	-3.000
490.085	1.000
490.349	0.000
490.612	1.000
490.876	-2.000
491.139	-2.000
491.402	1.000
491.666	-2.000
491.929	-4.000
492.192	-2.000
492.456	-1.000
492.719	-2.000
492.982	3.000
493.246	-1.000
493.509	2.000
493.772	-1.000
494.035	-2.000
494.299	-2.000
494.562	-2.000
494.825	0.000
495.088	-5.000
495.352	-2.000
495.615	-4.000
495.878	-6.000
496.141	-4.000
496.405	-3.000
496.668	1.000
496.931	-6.000
497.194	-5.000
497.457	1.000
497.721	0.000
497.984	-5.000
498.247	0.000
498.510	1.000
498.773	-5.000
499.036	-8.000
499.299	-1.000
499.562	-3.000
499.826	-2.000
500.089	-2.000
500.352	-3.000
500.615	-4.000
500.878	-1.000
501.141	-3.000
501.404	-5.000
501.667	-5.000
501.930	-4.000
502.193	-7.000
502.456	-2.000
502.719	-7.000
502.982	-4.000
503.245	-6.000
503.508	-2.000
503.771	3.000
504.034	1.000
504.297	-4.000
504.560	-2.000
504.823	-2.000
505.086	0.000
505.349	2.000
505.612	-5.000
505.875	-4.000
506.138	-4.000
506.401	-3.000
506.664	-5.000
506.927	-2.000
507.189	-5.000
507.452	-5.000
507.715	-2.000
507.978	-3.000
508.241	0.000
508.504	-6.000
508.767	-5.000
509.029	0.000
509.292	-4.000
509.555	-6.000
509.818	-3.000
510.081	-1.000
510.343	-2.000
510.606	-2.000
510.869	-2.000
511.132	-1.000
511.395	2.000
511.657	-3.000
511.920	-4.000
512.183	0.000
512.446	-4.000
512.708	0.000
512.971	-1.000
513.234	-3.000
513.496	-1.000
513.759	-7.000
514.022	0.000
514.284	-2.000
514.547	-5.000
514.810	0.000
515.072	-1.000
515.335	-5.000
515.598	0.000
515.860	-3.000
516.123	-3.000
516.386	-3.000
516.648	-3.000
516.911	-6.000
517.173	-3.000
517.436	-7.000
517.698	0.000
517.961	-6.000
518.224	-1.000
518.486	-1.000
518.749	-5.000
519.011	-1.000
519.274	-1.000
519.536	0.000
519.799	-4.000
520.061	-2.000
520.324	0.000
520.586	1.000
520.849	-4.000
521.111	-3.000
521.374	0.000
521.636	-4.000
521.899	0.000
522.161	0.000
522.423	-5.000
522.686	0.000
522.948	-7.000
523.211	-1.000
523.473	-4.000
523.736	-2.000
523.998	-1.000
524.260	-3.000
524.523	-3.000
524.785	-1.000
525.047	-5.000
525.310	-4.000
525.572	-5.000
525.834	-4.000
526.097	-5.000
526.359	-5.000
526.621	-4.000
526.884	-5.000
527.146	-5.000
527.408	-3.000
527.670	1.000
527.933	3.000
528.195	-1.000
528.457	-4.000
528.719	-5.000
528.982	-5.000
529.244	-3.000
529.506	-5.000
529.768	-4.000
530.031	-3.000
530.293	-3.000
530.555	-3.000
530.817	-2.000
531.079	-3.000
531.342	-1.000
531.604	-4.000
531.866	-4.000
532.128	-7.000
532.390	0.000
532.652	-6.000
532.914	-1.000
533.176	-3.000
533.439	-2.000
533.701	-6.000
533.963	1.000
534.225	-1.000
534.487	-2.000
534.749	-1.000
535.011	0.000
535.273	1.000
535.535	-2.000
535.797	-1.000
536.059	-2.000
536.321	0.000
536.583	-1.000
536.845	-2.000
537.107	-2.000
537.369	-6.000
537.631	-1.000
537.893	-4.000
538.155	-3.000
538.417	-2.000
538.679	-7.000
538.941	-5.000
539.203	-7.000
539.465	-6.000
539.727	1.000
539.989	-3.000
540.251	0.000
540.512	-2.000
540.774	-4.000
541.036	-2.000
541.298	-3.000
541.560	1.000
541.822	1.000
542.084	-1.000
542.345	-5.000
542.607	-3.000
542.869	-2.000
543.131	-1.000
543.393	-4.000
543.655	1.000
543.916	-3.000
544.178	-2.000
544.440	-3.000
544.702	0.000
544.963	-8.000
545.225	-8.000
545.487	-5.000
545.749	-1.000
546.010	-5.000
546.272	-3.000
546.534	-1.000
546.795	-3.000
547.057	-3.000
547.319	0.000
547.581	-3.000
547.842	-2.000
548.104	0.000
548.366	-7.000
548.627	-6.000
548.889	-1.000
549.150	-4.000
549.412	-3.000
549.674	-1.000
549.935	-4.000
550.197	-2.000
550.459	-6.000
550.720	-3.000
550.982	-6.000
551.243	-3.000
551.505	-3.000
551.766	0.000
552.028	1.000
552.289	-4.000
552.551	-2.000
552.813	-3.000
553.074	1.000
553.336	0.000
553.597	0.000
553.859	-2.000
554.120	3.000
554.382	-1.000
554.643	0.000
554.904	2.000
555.166	-1.000
555.427	-4.000
555.689	-2.000
555.950	-4.000
556.212	5.000
556.473	0.000
556.735	1.000
556.996	-1.000
557.257	-2.000
557.519	0.000
557.780	-2.000
558.041	-2.000
558.303	2.000
558.564	0.000
558.826	-2.000
559.087	2.000
559.348	-1.000
559.609	-1.000
559.871	-2.000
560.132	0.000
560.393	-2.000
560.655	-6.000
560.916	-2.000
561.177	-6.000
561.439	-5.000
561.700	-4.000
561.961	0.000
562.222	-4.000
562.484	2.000
562.745	4.000
563.006	-1.000
563.267	1.000
563.528	0.000
563.790	-1.000
564.051	-6.000
564.312	-1.000
564.573	0.000
564.834	-5.000
565.095	4.000
565.357	2.000
565.618	0.000
565.879	-3.000
566.140	0.000
566.401	-4.000
566.662	-3.000
566.923	2.000
567.184	0.000
567.446	-1.000
567.707	0.000
567.968	0.000
568.229	-2.000
568.490	0.000
568.751	-6.000
569.012	0.000
569.273	-3.000
569.534	-3.000
569.795	1.000
570.056	-2.000
570.317	-3.000
570.578	-5.000
570.839	-4.000
571.100	-2.000
571.361	1.000
571.622	0.000
571.883	-1.000
572.144	3.000
572.405	3.000
572.666	-1.000
572.927	-1.000
573.188	-1.000
573.449	0.000
573.709	-2.000
573.970	-3.000
574.231	-3.000
574.492	-2.000
574.753	-2.000
575.014	0.000
575.275	-1.000
575.536	-2.000
575.796	-1.000
576.057	0.000
576.318	1.000
576.579	-3.000
576.840	-5.000
577.100	-1.000
577.361	0.000
577.622	0.000
577.883	-2.000
578.144	-2.000
578.404	1.000
578.665	-1.000
578.926	-1.000
579.187	1.000
579.447	-2.000
579.708	-2.000
579.969	-1.000
580.229	-1.000
580.490	-2.000
580.751	-4.000
581.012	-4.000
581.272	-10.000
581.533	0.000
581.794	-2.000
582.054	0.000
582.315	-1.000
582.576	3.000
582.836	-4.000
583.097	-2.000
583.357	0.000
583.618	2.000
583.879	-1.000
584.139	-4.000
584.400	-2.000
584.660	2.000
584.921	-2.000
585.181	-5.000
585.442	-4.000
585.703	-6.000
585.963	-1.000
586.224	-1.000
586.484	0.000
586.745	-3.000
587.005	-3.000
587.266	-2.000
587.526	-1.000
587.787	-1.000
588.047	-2.000
588.308	-5.000
588.568	-7.000
588.829	3.000
589.089	-5.000
589.349	-1.000
589.610	-2.000
589.870	-2.000
590.131	-2.000
590.391	-1.000
590.651	1.000
590.912	0.000
591.172	-3.000
591.433	0.000
591.693	1.000
591.953	-3.000
592.214	-1.000
592.474	4.000
592.734	0.000
592.995	-2.000
593.255	0.000
593.515	-7.000
593.776	-2.000
594.036	-5.000
594.296	-2.000
594.557	-3.000
594.817	-1.000
595.077	2.000
595.337	0.000
595.598	-1.000
595.858	-1.000
596.118	3.000
596.378	-1.000
596.639	-4.000
596.899	-1.000
597.159	-7.000
597.419	1.000
597.679	-2.000
597.939	-3.000
598.200	-2.000
598.460	-8.000
598.720	-6.000
598.980	-2.000
599.240	-4.000
599.500	-5.000
599.761	-3.000
600.021	-3.000
600.281	-2.000
600.541	-6.000
600.801	-2.000
601.061	-1.000
601.321	-1.000
601.581	-1.000
601.841	-5.000
602.101	1.000
602.361	-3.000
602.621	-7.000
602.881	0.000
603.142	-1.000
603.402	-3.000
603.662	-7.000
603.922	-1.000
604.182	-3.000
604.442	-2.000
604.702	0.000
604.961	-3.000
605.221	-1.000
605.481	-1.000
605.741	0.000
606.001	1.000
606.261	1.000
606.521	-5.000
606.781	0.000
607.041	-2.000
607.301	2.000
607.561	-4.000
607.821	-2.000
608.081	0.000
608.340	-4.000
608.600	-4.000
608.860	4.000
609.120	-3.000
609.380	-2.000
609.640	-4.000
609.899	-2.000
610.159	-2.000
610.419	-4.000
610.679	1.000
610.939	-4.000
611.199	3.000
611.458	-2.000
611.718	-3.000
611.978	-1.000
612.238	1.000
612.497	-1.000
612.757	-1.000
613.017	-2.000
613.277	-6.000
613.536	0.000
613.796	-4.000
614.056	0.000
614.315	1.000
614.575	-3.000
614.835	-4.000
615.094	-6.000
615.354	-2.000
615.614	-4.000
615.873	-6.000
616.133	-1.000
616.393	-3.000
616.652	-2.000
616.912	-5.000
617.171	0.000
617.431	-5.000
617.691	-3.000
617.950	-2.000
618.210	-6.000
618.469	-7.000
618.729	-5.000
618.989	-3.000
619.248	-3.000
619.508	-3.000
619.767	0.000
620.027	-5.000
620.286	-6.000
620.546	-2.000
620.805	-1.000
621.065	-1.000
621.324	-6.000
621.584	-9.000
621.843	-4.000
622.103	-2.000
622.362	-2.000
622.622	0.000
622.881	1.000
623.140	0.000
623.400	-2.000
623.659	2.000
623.919	-1.000
624.178	-4.000
624.437	-4.000
624.697	-4.000
624.956	-6.000
625.216	-2.000
625.475	-3.000
625.734	3.000
625.994	1.000
626.253	-4.000
626.512	-5.000
626.772	1.000
627.031	1.000
627.290	-1.000
627.550	-3.000
627.809	-2.000
628.068	-5.000
628.327	-7.000
628.587	-8.000
628.846	-2.000
629.105	-1.000
629.364	-4.000
629.624	-3.000
629.883	-5.000
630.142	-2.000
630.401	-3.000
630.661	-3.000
630.920	-2.000
631.179	0.000
631.438	-1.000
631.697	2.000
631.957	-4.000
632.216	-1.000
632.475	-5.000
632.734	0.000
632.993	-1.000
633.252	-4.000
633.511	0.000
633.770	-4.000
634.030	0.000
634.289	3.000
634.548	-4.000
634.807	0.000
635.066	-4.000
635.325	-3.000
635.584	-5.000
635.843	-8.000
636.102	-4.000
636.361	1.000
636.620	-3.000
636.879	-6.000
637.138	-1.000
637.397	1.000
637.656	-3.000
637.915	-3.000
638.174	-2.000
638.433	-4.000
638.692	0.000
638.951	0.000
639.210	-2.000
639.469	-3.000
639.728	-2.000
639.987	-6.000
640.246	-1.000
640.505	-4.000
640.764	-1.000
641.023	-2.000
641.282	-5.000
641.540	-3.000
641.799	-6.000
642.058	-5.000
642.317	-1.000
642.576	-2.000
642.835	-4.000
643.094	-1.000
643.352	-4.000
643.611	-4.000
643.870	-2.000
644.129	-3.000
644.388	-2.000
644.646	-3.000
644.905	-1.000
645.164	-2.000
645.423	5.000
645.682	-4.000
645.940	-2.000
646.199	-6.000
646.458	-6.000
646.716	-1.000
646.975	-1.000
647.234	-1.000
647.493	-2.000
647.751	-4.000
648.010	-5.000
648.269	-1.000
648.527	1.000
648.786	1.000
649.045	2.000
649.303	-4.000
649.562	-1.000
649.821	-3.000
650.079	-2.000
650.338	-3.000
650.597	2.000
650.855	-5.000
651.114	-7.000
651.372	-6.000
651.631	0.000
651.890	-4.000
652.148	0.000
652.407	-8.000
652.665	-2.000
652.924	-6.000
653.182	-2.000
653.441	-4.000
653.699	1.000
653.958	-8.000
654.216	-3.000
654.475	0.000
654.733	-1.000
654.992	-3.000
655.250	-6.000
655.509	-4.000
655.767	33.000
656.026	138.000
656.284	199.000
656.543	131.000
656.801	52.000
657.059	16.000
657.318	-1.000
657.576	-8.000
657.835	-2.000
658.093	0.000
658.351	1.000
658.610	-4.000
658.868	-4.000
659.127	-4.000
659.385	2.000
659.643	-2.000
659.902	-5.000
660.160	-6.000
660.418	-3.000
660.677	-5.000
660.935	-7.000
661.193	-1.000
661.452	-3.000
661.710	-5.000
661.968	-3.000
662.226	1.000
662.485	-1.000
662.743	-2.000
663.001	-3.000
663.259	-1.000
663.518	3.000
663.776	-1.000
664.034	-1.000
664.292	-6.000
664.550	-6.000
664.809	-6.000
665.067	-2.000
665.325	-2.000
665.583	1.000
665.841	-4.000
666.099	-4.000
666.358	-3.000
666.616	-3.000
666.874	1.000
667.132	-2.000
667.390	-3.000
667.648	0.000
667.906	-2.000
668.164	-3.000
668.423	-1.000
668.681	-2.000
668.939	-1.000
669.197	-4.000
669.455	-4.000
669.713	-5.000
669.971	-2.000
670.229	1.000
670.487	-4.000
670.745	-1.000
671.003	0.000
671.261	-2.000
671.519	-5.000
671.777	-7.000
672.035	-2.000
672.293	-4.000
672.551	-2.000
672.809	-4.000
673.067	-6.000
673.325	-6.000
673.583	-4.000
673.841	-2.000
674.099	-1.000
674.356	3.000
674.614	-5.000
674.872	-2.000
675.130	-2.000
675.388	-4.000
675.646	1.000
675.904	-4.000
676.162	-9.000
676.419	-8.000
676.677	-4.000
676.935	0.000
677.193	-3.000
677.451	0.000
677.709	-1.000
677.966	0.000
678.224	-2.000
678.482	-1.000
678.740	-1.000
678.998	-3.000
679.255	-6.000
679.513	-6.000
679.771	-6.000
680.029	-2.000
680.286	-8.000
680.544	-1.000
680.802	-4.000
681.059	-6.000
681.317	-3.000
681.575	0.000
681.833	-4.000
682.090	-3.000
682.348	-4.000
682.606	-3.000
682.863	-3.000
683.121	-3.000
683.379	-4.000
683.636	-5.000
683.894	-4.000
684.151	-4.000
684.409	-8.000
684.667	-8.000
684.924	-10.000
685.182	-2.000
685.439	-1.000
685.697	-3.000
685.955	-6.000
686.212	-4.000
686.470	-4.000
686.727	-1.000
686.985	0.000
687.242	-4.000
687.500	-3.000
687.757	-7.000
688.015	-8.000
688.272	-1.000
688.530	-2.000
688.787	-5.000
689.045	-7.000
689.302	-1.000
689.560	-2.000
689.817	-5.000
690.075	-2.000
690.332	-4.000
690.589	-2.000
690.847	-5.000
691.104	-1.000
691.362	-5.000
691.619	-6.000
691.876	0.000
692.134	0.000
692.391	-2.000
692.649	2.000
692.906	-5.000
693.163	-1.000
693.421	-5.000
693.678	-1.000
693.935	-7.000
694.193	-4.000
694.450	-6.000
694.707	-3.000
694.965	-5.000
695.222	-6.000
695.479	-3.000
695.736	-3.000
695.994	-4.000
696.251	-1.000
696.508	-9.000
696.765	-6.000
697.023	-2.000
697.280	-6.000
697.537	-2.000
697.794	0.000
698.052	-4.000
698.309	-3.000
698.566	-4.000
698.823	-4.000
699.080	-6.000
699.338	-5.000
699.595	-5.000
699.852	-9.000
700.109	-3.000
700.366	-3.000
700.623	-3.000
700.880	-3.000
701.137	-2.000
701.395	-10.000
701.652	-6.000
701.909	-3.000
702.166	1.000
702.423	-2.000
702.680	-3.000
702.937	-5.000
703.194	-4.000
703.451	-4.000
703.708	-6.000
703.965	-6.000
704.222	-4.000
704.479	-6.000
704.736	-2.000
704.993	-8.000
705.250	-5.000
705.507	-6.000
705.764	-2.000
706.021	-7.000
706.278	-4.000
706.535	-7.000
706.792	-4.000
707.049	2.000
707.306	1.000
707.563	-4.000
707.820	-9.000
708.077	-3.000
708.334	-3.000
708.591	-1.000
708.847	-4.000
709.104	1.000
709.361	1.000
709.618	-2.000
709.875	-5.000
710.132	-5.000
710.389	-1.000
710.645	-2.000
710.902	-6.000
711.159	-2.000
711.416	-1.000
711.673	-2.000
711.930	-1.000
712.186	-2.000
712.443	-1.000
712.700	-1.000
712.957	-1.000
713.213	-9.000
713.470	-5.000
713.727	-5.000
713.984	-6.000
714.240	-5.000
714.497	-6.000
714.754	-5.000
715.011	-2.000
715.267	-3.000
715.524	-6.000
715.781	-4.000
716.037	-5.000
716.294	-5.000
716.551	-2.000
716.807	-4.000
717.064	-2.000
717.321	-4.000
717.577	-3.000
717.834	-2.000
718.090	-4.000
718.347	-2.000
718.604	-3.000
718.860	-4.000
719.117	-5.000
719.373	-3.000
719.630	-3.000
719.886	-2.000
720.143	-3.000
720.400	-2.000
720.656	-3.000
720.913	-3.000
721.169	-3.000
721.426	-1.000
721.682	2.000
721.939	-2.000
722.195	1.000
722.452	-5.000
722.708	-3.000
722.965	1.000
723.221	-2.000
723.478	-6.000
723.734	-5.000
723.990	-2.000
724.247	-8.000
724.503	-7.000
724.760	-5.000
725.016	-2.000
725.273	-5.000
725.529	1.000
725.785	0.000
726.042	0.000
726.298	-8.000
726.554	-4.000
726.811	-3.000
727.067	-3.000
727.323	-3.000
727.580	-3.000
727.836	-1.000
728.092	-4.000
728.349	-3.000
728.605	-2.000
728.861	-2.000
729.118	-3.000
729.374	2.000
729.630	-2.000
729.886	0.000
730.143	-2.000
730.399	-4.000
730.655	-6.000
730.911	-2.000
731.168	-3.000
731.424	-4.000
731.680	-1.000
731.936	-2.000
732.193	2.000
732.449	-6.000
732.705	-5.000
732.961	-8.000
733.217	-4.000
733.473	-2.000
733.730	-7.000
733.986	-1.000
734.242	-3.000
734.498	0.000
734.754	-2.000
735.010	-3.000
735.266	2.000
735.522	1.000
735.778	-3.000
736.035	0.000
736.291	-2.000
736.547	2.000
736.803	-1.000
737.059	-4.000
737.315	-3.000
737.571	-9.000
737.827	-5.000
738.083	-5.000
738.339	-5.000
738.595	-1.000
738.851	1.000
739.107	-7.000
739.363	-6.000
739.619	-5.000
739.875	-1.000
740.131	0.000
740.387	1.000
740.643	-3.000
740.899	-9.000
741.155	-5.000
741.411	-2.000
741.666	-5.000
741.922	-2.000
742.178	2.000
742.434	-2.000
742.690	2.000
742.946	-2.000
743.202	-1.000
743.458	-5.000
743.714	-1.000
743.969	-5.000
744.225	1.000
744.481	-1.000
744.737	-2.000
744.993	1.000
745.249	-2.000
745.504	-6.000
745.760	-3.000
746.016	-3.000
746.272	-4.000
746.527	-4.000
746.783	-1.000
747.039	-1.000
747.295	-3.000
747.550	-7.000
747.806	-2.000
748.062	-4.000
748.318	-1.000
748.573	-3.000
748.829	-1.000
749.085	-2.000
749.340	-3.000
749.596	0.000
749.852	-4.000
750.108	-7.000
750.363	-2.000
750.619	-1.000
750.874	0.000
751.130	-5.000
751.386	-2.000
751.641	0.000
751.897	0.000
752.153	-8.000
752.408	-3.000
752.664	-5.000
752.919	1.000
753.175	0.000
753.430	-4.000
753.686	-3.000
753.942	0.000
754.197	-6.000
754.453	-2.000
754.708	0.000
754.964	-1.000
755.219	-1.000
755.475	-2.000
755.730	-3.000
755.986	-3.000
756.241	-5.000
756.497	0.000
756.752	1.000
757.008	0.000
757.263	-1.000
757.519	1.000
757.774	-2.000
758.029	-1.000
758.285	-6.000
758.540	-1.000
758.796	-2.000
759.051	-2.000
759.307	-4.000
759.562	-4.000
759.817	-2.000
760.073	-5.000
760.328	4.000
760.583	1.000
760.839	1.000
761.094	1.000
761.349	-1.000
761.605	0.000
761.860	-2.000
762.115	1.000
762.371	-1.000
762.626	-2.000
762.881	-3.000
763.137	-3.000
763.392	-2.000
763.647	-4.000
763.902	-4.000
764.158	-1.000
764.413	2.000
764.668	-2.000
764.923	-2.000
765.179	3.000
765.434	-1.000
765.689	-1.000
765.944	-2.000
766.199	-1.000
766.455	-1.000
766.710	-2.000
766.965	0.000
767.220	0.000
767.475	5.000
767.730	0.000
767.985	0.000
768.241	3.000
768.496	-2.000
768.751	0.000
769.006	2.000
769.261	-3.000
769.516	-1.000
769.771	-5.000
770.026	-1.000
770.281	0.000
770.536	-4.000
770.791	-3.000
771.047	-4.000
771.302	-9.000
771.557	-3.000
771.812	0.000
772.067	0.000
772.322	-3.000
772.577	-2.000
772.832	0.000
773.087	-2.000
773.342	-3.000
773.597	4.000
773.852	2.000
774.107	-2.000
774.361	0.000
774.616	0.000
774.871	-2.000
775.126	-2.000
775.381	-2.000
775.636	-2.000
775.891	-1.000
776.146	-2.000
776.401	1.000
776.656	-1.000
776.911	1.000
777.165	-4.000
777.420	-2.000
777.675	-2.000
777.930	-7.000
778.185	-5.000
778.440	-5.000
778.694	0.000
778.949	-2.000
779.204	2.000
779.459	-2.000
779.714	-3.000
779.968	-1.000
780.223	-3.000
780.478	0.000
780.733	2.000
780.988	3.000
781.242	0.000
781.497	-1.000
781.752	-2.000
782.006	-2.000
782.261	-1.000
782.516	-2.000
782.771	4.000
783.025	1.000
783.280	3.000
783.535	-1.000
783.789	-5.000
784.044	-5.000
784.299	-1.000
784.553	-2.000
784.808	2.000
785.063	2.000
785.317	0.000
785.572	0.000
785.826	-1.000
786.081	1.000
786.336	-2.000
786.590	-4.000
786.845	0.000
787.099	5.000
787.354	-1.000
787.609	2.000
787.863	0.000
788.118	-2.000
788.372	0.000
788.627	1.000
788.881	0.000
789.136	-2.000
789.390	-4.000
789.645	-4.000
789.899	-2.000
790.154	-4.000
790.408	-7.000
790.663	-1.000
790.917	-3.000
791.172	-2.000
791.426	1.000
791.680	-4.000
791.935	-5.000
792.189	-2.000
792.444	-4.000
792.698	2.000
792.953	-1.000
793.207	-3.000
793.461	-2.000
793.716	-2.000
793.970	4.000
794.224	-1.000
794.479	5.000
794.733	2.000
794.987	3.000
795.242	2.000
795.496	3.000
795.750	-1.000
796.005	1.000
796.259	1.000
796.513	-2.000
796.768	-3.000
797.022	-3.000
797.276	-1.000
797.530	-1.000
797.785	-1.000
798.039	3.000
798.293	4.000
798.547	1.000
798.802	-1.000
799.056	0.000
799.310	3.000
799.564	-1.000
799.819	1.000
800.073	4.000
800.327	-3.000
800.581	3.000
800.835	0.000
801.089	-2.000
801.344	-3.000
801.598	-3.000
801.852	-1.000
802.106	4.000
802.360	2.000
802.614	-1.000
802.868	-2.000
803.122	-3.000
803.377	-4.000
803.631	-3.000
803.885	-1.000
804.139	-1.000
804.393	-3.000
804.647	-1.000
804.901	0.000
805.155	-4.000
805.409	-1.000
805.663	-1.000
805.917	4.000
806.171	0.000
806.425	-2.000
806.679	2.000
806.933	0.000
807.187	0.000
807.441	3.000
807.695	-6.000
807.949	-2.000
808.203	3.000
808.457	-1.000
808.711	4.000
808.965	0.000
809.219	-2.000
809.473	-2.000
809.726	0.000
809.980	-2.000
810.234	-2.000
810.488	1.000
810.742	-3.000
810.996	-1.000
811.250	0.000
811.504	-3.000
811.757	-3.000
812.011	0.000
812.265	2.000
812.519	2.000
812.773	-1.000
813.027	-3.000
813.280	1.000
813.534	-4.000
813.788	3.000
814.042	1.000
814.295	2.000
814.549	-4.000
814.803	-3.000
815.057	-4.000
815.310	1.000
815.564	-6.000
815.818	-6.000
816.072	-1.000
816.325	-1.000
816.579	-4.000
816.833	-2.000
817.086	-3.000
817.340	-2.000
817.594	0.000
817.848	-2.000
818.101	-4.000
818.355	-1.000
818.608	-1.000
818.862	1.000
819.116	-1.000
819.369	-3.000
819.623	-2.000
819.877	-5.000
820.130	-6.000
820.384	-2.000
820.637	-2.000
820.891	-2.000
821.144	-3.000
821.398	-6.000
821.652	-3.000
821.905	-3.000
822.159	3.000
822.412	-3.000
822.666	-3.000
822.919	0.000
823.173	2.000
823.426	0.000
823.680	1.000
823.933	1.000
824.187	-4.000
824.440	0.000
824.694	-3.000
824.947	1.000
825.201	0.000
825.454	-2.000
825.707	-2.000
825.961	-2.000
826.214	-2.000
826.468	1.000
826.721	1.000
826.975	0.000
827.228	0.000
827.481	1.000
827.735	0.000
827.988	-3.000
828.241	-2.000
828.495	-1.000
828.748	2.000
829.001	-2.000
829.255	-2.000
829.508	-6.000
829.761	-1.000
830.015	-4.000
830.268	-2.000
830.521	-1.000
830.775	-1.000
831.028	-3.000
831.281	-7.000
831.534	-3.000
831.788	1.000
832.041	-2.000
832.294	-6.000
832.547	-3.000
832.801	-5.000
833.054	-2.000
833.307	-2.000
833.560	-5.000
833.813	0.000
834.067	0.000
834.320	-4.000
834.573	-3.000
834.826	-3.000
835.079	1.000
835.332	0.000
835.586	-1.000
835.839	-5.000
836.092	-7.000
836.345	-5.000
836.598	-5.000
836.851	-4.000
837.104	-5.000
837.357	-8.000
837.611	-5.000
837.864	-3.000
838.117	-1.000
838.370	-5.000
838.623	-7.000
838.876	-3.000
839.129	-1.000
839.382	-4.000
839.635	-6.000
839.888	-3.000
840.141	-5.000
840.394	-2.000
840.647	5.000
840.900	-2.000
841.153	-1.000
841.406	1.000
841.659	-4.000
841.912	-3.000
842.165	-3.000
842.418	-3.000
842.671	-2.000
842.924	2.000
843.176	-4.000
843.429	-3.000
843.682	1.000
843.935	-7.000
844.188	-4.000
844.441	-5.000
844.694	-5.000
844.947	-5.000
845.200	-8.000
845.452	-9.000
845.705	-4.000
845.958	-3.000
846.211	-2.000
846.464	1.000
846.717	-3.000
846.969	-1.000
847.222	-6.000
847.475	-3.000
847.728	-7.000
847.981	-4.000
848.233	-9.000
848.486	-3.000
848.739	-2.000
848.992	-3.000
849.244	0.000
849.497	-9.000
849.750	-7.000
850.003	-2.000
850.255	-2.000
850.508	0.000
850.761	6.000
851.013	-3.000
851.266	-2.000
851.519	-5.000
851.771	-6.000
852.024	-3.000
852.277	-1.000
852.529	-2.000
852.782	-6.000
853.035	1.000
853.287	-3.000
853.540	0.000
853.792	1.000
854.045	-5.000
854.298	-4.000
854.550	-2.000
854.803	-1.000
855.055	-4.000
855.308	-5.000
855.560	-3.000
855.813	-7.000
856.066	-6.000
856.318	-6.000
856.571	-7.000
856.823	-8.000
857.076	-4.000
857.328	-2.000
857.581	-1.000
857.833	-10.000
858.086	-3.000
858.338	-9.000
858.591	-3.000
858.843	-6.000
859.095	-7.000
859.348	-3.000
859.600	-5.000
859.853	-4.000
860.105	0.000
860.358	1.000
860.610	0.000
860.862	-2.000
861.115	-2.000
861.367	-6.000
861.620	0.000
861.872	1.000
862.124	1.000
862.377	-5.000
862.629	-2.000
862.881	-4.000
863.134	-9.000
863.386	-7.000
863.638	-7.000
863.891	-4.000
864.143	-5.000
864.395	-1.000
864.648	-1.000
864.900	-8.000
865.152	-7.000
865.404	-3.000
865.657	-3.000
865.909	-5.000
866.161	-5.000
866.413	-3.000
866.666	-3.000
866.918	-7.000
867.170	-1.000
867.422	-3.000
867.674	-4.000
867.927	-5.000
868.179	-1.000
868.431	-5.000
868.683	-6.000
868.935	-2.000
869.187	-3.000
869.440	-2.000
869.692	-1.000
869.944	0.000
870.196	-2.000
870.448	-4.000
870.700	-7.000
870.952	-5.000
871.204	-6.000
871.457	-6.000
871.709	-2.000
871.961	-3.000
872.213	0.000
872.465	-1.000
872.717	-2.000
872.969	1.000
873.221	0.000
873.473	-4.000
873.725	-2.000
873.977	-3.000
874.229	-2.000
874.481	-4.000
874.733	-4.000
874.985	-1.000
875.237	-2.000
875.489	1.000
875.741	3.000
875.993	-5.000
876.245	-3.000
876.497	-5.000
876.749	-3.000
877.001	-3.000
877.253	-4.000
877.504	-2.000
877.756	-4.000
878.008	-6.000
878.260	-5.000
878.512	-3.000
878.764	-3.000
879.016	1.000
879.268	-3.000
879.519	-5.000
879.771	-4.000
880.023	0.000
880.275	-1.000
880.527	0.000
880.779	-4.000
881.030	-3.000
881.282	-5.000
881.534	-6.000
881.786	-2.000
882.038	-4.000
882.289	-1.000
882.541	-3.000
882.793	-4.000
883.045	-4.000
883.296	-4.000
883.548	-7.000
883.800	-1.000
884.052	-3.000
884.303	-9.000
884.555	-4.000
884.807	-1.000
885.058	-6.000
885.310	3.000
885.562	-2.000
885.813	0.000
886.065	-3.000
886.317	3.000
886.568	2.000
886.820	-1.000
887.072	-3.000
887.323	-3.000
887.575	-5.000
887.826	-3.000
888.078	-2.000
888.330	-1.000
888.581	-2.000
888.833	-2.000
889.084	-1.000
889.336	-2.000
889.587	-1.000
889.839	0.000
890.091	-6.000
890.342	-4.000
890.594	1.000
890.845	-2.000
891.097	0.000
891.348	-3.000
891.600	-3.000
891.851	-3.000
892.103	-1.000
892.354	0.000
892.606	0.000
892.857	-1.000
893.108	-3.000
893.360	4.000
893.611	2.000
893.863	0.000
894.114	-4.000
894.366	-1.000
894.617	3.000
894.868	-1.000
895.120	-5.000
895.371	-5.000
895.623	-5.000
895.874	-1.000
896.125	0.000
896.377	0.000
896.628	1.000
896.879	-3.000
897.131	1.000
897.382	4.000
897.633	1.000
897.885	1.000
898.136	-1.000
898.387	-1.000
898.639	-1.000
898.890	-3.000
899.141	-3.000
899.392	0.000
899.644	3.000
899.895	-1.000
900.146	1.000
900.397	2.000
900.649	-7.000
900.900	-1.000
901.151	4.000
901.402	-5.000
901.653	-2.000
901.905	0.000
902.156	1.000
902.407	4.000
902.658	0.000
902.909	-2.000
903.160	0.000
903.412	1.000
903.663	-2.000
903.914	1.000
904.165	-4.000
904.416	0.000
904.667	-2.000
904.918	-4.000
905.169	0.000
905.421	3.000
905.672	-3.000
905.923	0.000
906.174	-1.000
906.425	3.000
906.676	0.000
906.927	0.000
907.178	0.000
907.429	-2.000
907.680	-6.000
907.931	1.000
908.182	-3.000
908.433	-2.000
908.684	1.000
908.935	-1.000
909.186	2.000
909.437	-1.000
909.688	0.000
909.939	-6.000
910.190	-2.000
910.441	-1.000
910.692	-3.000
910.943	-4.000
911.194	1.000
911.445	1.000
911.695	-1.000
911.946	-3.000
912.197	-2.000
912.448	0.000
912.699	-4.000
912.950	-4.000
913.201	-1.000
913.452	1.000
913.702	1.000
913.953	2.000
914.204	0.000
914.455	-2.000
914.706	-3.000
914.957	0.000
915.207	-1.000
915.458	-3.000
915.709	-2.000
915.960	1.000
916.210	0.000
916.461	0.000
916.712	-1.000
916.963	-1.000
917.213	3.000
917.464	-1.000
917.715	2.000
917.966	-1.000
918.216	0.000
918.467	-10.000
918.718	2.000
918.969	1.000
919.219	1.000
919.470	-6.000
919.721	-3.000
919.971	-1.000
920.222	0.000
920.473	-3.000
920.723	3.000
920.974	2.000
921.224	-5.000
921.475	-3.000
921.726	-1.000
921.976	-1.000
922.227	1.000
922.477	-2.000
922.728	-2.000
922.979	-2.000
923.229	2.000
923.480	2.000
923.730	0.000
923.981	-3.000
924.231	-5.000
924.482	1.000
924.732	-3.000
924.983	0.000
925.233	1.000
925.484	-1.000
925.734	-3.000
925.985	3.000
926.235	-5.000
926.486	0.000
926.736	-4.000
926.987	-1.000
927.237	-6.000
927.488	-6.000
927.738	-3.000
927.989	-1.000
928.239	-3.000
928.489	0.000
928.740	-5.000
928.990	-2.000
929.241	-1.000
929.491	-1.000
929.741	0.000
929.992	0.000
930.242	-1.000
930.492	-1.000
930.743	-1.000
930.993	-2.000
931.243	1.000
931.494	2.000
931.744	-4.000
931.994	-2.000
932.245	2.000
932.495	-1.000
932.745	-6.000
932.996	-2.000
933.246	-1.000
933.496	1.000
933.746	-3.000
933.997	-4.000
934.247	-3.000
934.497	1.000
934.747	-1.000
934.998	-1.000
935.248	-2.000
935.498	0.000
935.748	-2.000
935.998	0.000
936.249	-2.000
936.499	1.000
936.749	0.000
936.999	-3.000
937.249	-1.000
937.499	-3.000
937.750	-5.000
938.000	-2.000
938.250	1.000
938.500	0.000
938.750	-4.000
939.000	-4.000
939.250	-5.000
939.500	-3.000
939.750	-2.000
940.000	-2.000
940.251	-2.000
940.501	-3.000
940.751	-3.000
941.001	0.000
941.251	-2.000
941.501	-3.000
941.751	-1.000
942.001	-3.000
942.251	0.000
942.501	0.000
942.751	0.000
943.001	0.000
943.251	3.000
943.501	-6.000
943.751	-5.000
944.001	-2.000
944.251	-6.000
944.501	-5.000
944.751	-4.000
945.000	3.000
945.250	-3.000
945.500	-4.000
945.750	-3.000
946.000	-2.000
946.250	1.000
946.500	0.000
946.750	2.000
947.000	-3.000
947.249	0.000
947.499	3.000
947.749	-2.000
947.999	-3.000
948.249	-2.000
948.499	1.000
948.749	0.000
948.998	0.000
949.248	0.000
949.498	-4.000
949.748	-9.000
949.997	-6.000
950.247	-4.000
950.497	-8.000
950.747	0.000
950.997	-1.000
951.246	-4.000
951.496	-5.000
951.746	1.000
951.995	-1.000
952.245	2.000
952.495	2.000
952.745	0.000
952.994	-4.000
953.244	-2.000
953.494	1.000
953.743	-1.000
953.993	-3.000
954.243	-8.000
954.492	-6.000
954.742	-2.000
954.992	-1.000
955.241	-1.000
955.491	-2.000
955.740	-4.000
955.990	-2.000
956.240	-5.000
956.489	-2.000
956.739	0.000
956.988	-4.000
957.238	-5.000
957.488	-7.000
957.737	-2.000
957.987	-2.000
958.236	0.000
958.486	-2.000
958.735	-4.000
958.985	1.000
959.234	2.000
959.484	-2.000
959.733	-4.000
959.983	0.000
960.232	-7.000
960.482	2.000
960.731	-5.000
960.981	-1.000
961.230	0.000
961.480	-6.000
961.729	2.000
961.978	-1.000
962.228	-4.000
962.477	-1.000
962.727	2.000
962.976	1.000
963.226	1.000
963.475	2.000
963.724	-1.000
963.974	2.000
964.223	-3.000
964.472	3.000
964.722	-3.000
964.971	-4.000
965.220	2.000
965.470	2.000
965.719	-1.000
965.968	-2.000
966.218	-3.000
966.467	-2.000
966.716	0.000
966.966	3.000
967.215	-8.000
967.464	-4.000
967.713	-4.000
967.963	-5.000
968.212	-5.000
968.461	-1.000
968.710	-4.000
968.960	-1.000
969.209	3.000
969.458	-1.000
969.707	0.000
969.956	-2.000
970.206	-3.000
970.455	3.000
970.704	-5.000
970.953	-3.000
971.202	1.000
971.451	-3.000
971.701	-1.000
971.950	1.000
972.199	0.000
972.448	0.000
972.697	1.000
972.946	1.000
973.195	-5.000
973.444	-3.000
973.694	-5.000
973.943	-1.000
974.192	-1.000
974.441	0.000
974.690	1.000
974.939	1.000
975.188	0.000
975.437	-1.000
975.686	2.000
975.935	-2.000
976.184	-2.000
976.433	-1.000
976.682	1.000
976.931	-1.000
977.180	-1.000
977.429	-2.000
977.678	-6.000
977.927	-3.000
978.176	-5.000
978.425	-7.000
978.674	-5.000
978.923	-9.000
979.172	-6.000
979.421	-1.000
979.670	-2.000
979.918	-3.000
980.167	2.000
980.416	0.000
980.665	-3.000
980.914	-4.000
981.163	-1.000
981.412	-5.000
981.661	-1.000
981.909	0.000
982.158	-4.000
982.407	-4.000
982.656	-6.000
982.905	-1.000
983.154	-5.000
983.402	-7.000
983.651	-3.000
983.900	-2.000
984.149	-4.000
984.398	-4.000
984.646	-6.000
984.895	-5.000
985.144	-4.000
985.393	1.000
985.641	-1.000
985.890	-1.000
986.139	-3.000
986.387	-1.000
986.636	-2.000
986.885	-4.000
987.134	-2.000
987.382	0.000
987.631	0.000
987.880	-1.000
988.128	4.000
988.377	1.000
988.626	-2.000
988.874	-1.000
989.123	-1.000
989.372	-2.000
989.620	0.000
989.869	0.000
990.117	-5.000
990.366	2.000
990.615	-1.000
990.863	1.000
991.112	-1.000
991.360	1.000
991.609	-3.000
991.857	-1.000
992.106	-5.000
992.355	-1.000
992.603	-4.000
992.852	-1.000
993.100	-1.000
993.349	-4.000
993.597	-3.000
993.846	-3.000
994.094	-1.000
994.343	-3.000
994.591	-1.000
994.840	-5.000
995.088	-4.000
995.336	-2.000
995.585	0.000
995.833	-1.000
996.082	-3.000
996.330	-1.000
996.579	1.000
996.827	-6.000
997.075	-3.000
997.324	-5.000
997.572	0.000
997.821	-6.000
998.069	-1.000
998.317	-2.000
998.566	-3.000
998.814	-4.000
999.062	-3.000
999.311	-4.000
999.559	-5.000
999.807	-3.000
1000.056	-8.000
1000.304	-3.000
1000.552	-4.000
1000.801	-4.000
1001.049	-3.000
1001.297	-6.000
1001.546	-2.000
1001.794	-6.000
1002.042	-3.000
1002.290	-1.000
1002.539	-4.000
1002.787	0.000
1003.035	-3.000
1003.283	-8.000
1003.531	-2.000
1003.780	-6.000
1004.028	0.000
1004.276	-6.000
1004.524	-6.000
1004.772	-4.000
1005.021	0.000
1005.269	-2.000
1005.517	-4.000
1005.765	-5.000
1006.013	-3.000
1006.261	-6.000
1006.509	-3.000
1006.758	-4.000
1007.006	-2.000
1007.254	-6.000
1007.502	2.000
1007.750	-2.000
1007.998	-5.000
1008.246	-2.000
1008.494	-6.000
1008.742	-4.000
1008.990	-6.000
1009.238	-3.000
1009.486	-4.000
1009.735	-4.000
1009.983	2.000
1010.231	2.000
1010.479	1.000
1010.727	2.000
1010.975	-1.000
1011.223	3.000
1011.471	-1.000
1011.719	0.000
1011.967	-2.000
1012.214	-4.000
1012.462	-1.000
1012.710	1.000
1012.958	-4.000
1013.206	3.000
1013.454	-1.000
1013.702	-5.000
1013.950	-7.000
1014.198	-4.000
1014.446	-2.000
1014.694	-4.000
1014.942	-2.000
1015.189	-2.000
1015.437	-2.000
1015.685	2.000
1015.933	-5.000
1016.181	-5.000
1016.429	-5.000
1016.677	-1.000
1016.924	-4.000
1017.172	-6.000
1017.420	-5.000
1017.668	-4.000
1017.916	-3.000
1018.163	-5.000
1018.411	-5.000
1018.659	-2.000
1018.907	-2.000
1019.155	-2.000
1019.402	-4.000
1019.650	-9.000
1019.898	-1.000
1020.145	-6.000
1020.393	-6.000
1020.641	-7.000
1020.889	-4.000
1021.136	-5.000
1021.384	-7.000
1021.632	-1.000
1021.879	-6.000
1022.127	-5.000
1022.375	-2.000
1022.622	1.000
1022.870	-3.000
1023.118	-4.000
1023.365	-3.000
1023.613	-5.000
1023.861	-3.000
1024.108	-8.000
1024.356	-2.000
1024.603	-11.000
1024.851	-2.000
1025.099	-4.000
1025.346	-5.000
1025.594	0.000
1025.841	1.000
1026.089	-6.000
1026.336	-8.000
1026.584	-10.000
1026.832	-6.000
1027.079	0.000
1027.327	-3.000
1027.574	-5.000
1027.822	-9.000
1028.069	-5.000
1028.317	-3.000
1028.564	-4.000
1028.812	-6.000
1029.059	-10.000
1029.306	-4.000
1029.554	-4.000
1029.801	-5.000
1030.049	-4.000
1030.296	0.000
1030.544	-2.000
1030.791	-6.000
1031.039	-4.000
1031.286	-5.000
1031.533	-5.000
1031.781	-4.000
1032.028	2.000
1032.276	-3.000
1032.523	-3.000
1032.770	-2.000
1033.018	-4.000
1033.265	-2.000
1033.512	0.000
1033.760	0.000
1034.007	-4.000
1034.254	1.000
1034.502	-2.000
1034.749	-3.000
1034.996	1.000
1035.243	-5.000
1035.491	-3.000
1035.738	-2.000
1035.985	-5.000
1036.233	-5.000
1036.480	-5.000
1036.727	-6.000
1036.974	-11.000
1037.222	-5.000
1037.469	-5.000
1037.716	-4.000
1037.963	-3.000
1038.210	-6.000
1038.458	-4.000
1038.705	-3.000
1038.952	1.000
1039.199	-4.000
1039.446	-4.000
1039.693	-4.000
1039.941	-6.000
1040.188	-5.000
1040.435	-4.000
1040.682	-2.000
1040.929	-3.000
1041.176	-4.000
1041.423	-5.000
1041.671	-4.000
1041.918	-4.000
1042.165	-5.000
1042.412	-2.000
1042.659	-1.000
1042.906	0.000
1043.153	-6.000
1043.400	-5.000
1043.647	-7.000
1043.894	-2.000
1044.141	-2.000
1044.388	-4.000
1044.635	1.000
1044.882	-2.000
1045.129	-1.000
1045.376	-2.000
1045.623	0.000
1045.870	-1.000
1046.117	-3.000
1046.364	-3.000
1046.611	-2.000
1046.858	-8.000
1047.105	-10.000
1047.352	-7.000
1047.599	-6.000
1047.846	-4.000
1048.093	0.000
1048.340	-5.000
1048.587	0.000
1048.833	-4.000
1049.080	-3.000
1049.327	-3.000
1049.574	-1.000
1049.821	-2.000
1050.068	-2.000
1050.315	-6.000
1050.561	-4.000
1050.808	-3.000
1051.055	-5.000
1051.302	-2.000
1051.549	0.000
1051.796	-6.000
1052.042	-6.000
1052.289	-2.000
1052.536	1.000
1052.783	-5.000
1053.030	1.000
1053.276	-2.000
1053.523	-4.000
1053.770	-3.000
1054.017	-4.000
1054.263	-2.000
1054.510	-6.000
1054.757	-8.000
1055.003	-5.000
1055.250	-8.000
1055.497	-8.000
1055.744	-7.000
1055.990	-3.000
1056.237	-7.000
1056.484	0.000
1056.730	-2.000
1056.977	0.000
1057.224	1.000
1057.470	-4.000
1057.717	1.000
1057.963	1.000
1058.210	-2.000
1058.457	-2.000
1058.703	0.000
1058.950	-2.000
1059.197	0.000
1059.443	1.000
1059.690	0.000
1059.936	-3.000
1060.183	-5.000
1060.429	-2.000
1060.676	-4.000
1060.922	2.000
1061.169	-3.000
1061.416	-4.000
1061.662	0.000
1061.909	-5.000
1062.155	-5.000
1062.402	2.000
1062.648	-2.000
1062.895	0.000
1063.141	-5.000
1063.387	-5.000
1063.634	-1.000
1063.880	0.000
1064.127	-2.000
1064.373	-2.000
1064.620	-6.000
1064.866	-2.000
1065.113	0.000
1065.359	-2.000
1065.605	-1.000
1065.852	3.000
1066.098	2.000
1066.345	-6.000
1066.591	1.000
1066.837	2.000
1067.084	-4.000
1067.330	-5.000
1067.576	-8.000
1067.823	1.000
1068.069	-6.000
1068.315	-5.000
1068.562	-1.000
1068.808	-1.000
1069.054	-2.000
1069.301	-2.000
1069.547	3.000
1069.793	-1.000
1070.040	1.000
1070.286	2.000
1070.532	-3.000
1070.778	-2.000
1071.025	-3.000
1071.271	-5.000
1071.517	-6.000
1071.763	-2.000
1072.009	-4.000
1072.256	-1.000
1072.502	0.000
1072.748	-3.000
1072.994	0.000
1073.240	0.000
1073.487	1.000
1073.733	0.000
1073.979	2.000
1074.225	-3.000
1074.471	-2.000
1074.717	-5.000
1074.964	-4.000
1075.210	0.000
1075.456	2.000
1075.702	-3.000
1075.948	-5.000
1076.194	-1.000
1076.440	-2.000
1076.686	-2.000
1076.932	-3.000
1077.178	-2.000
1077.425	-1.000
1077.671	-3.000
1077.917	1.000
1078.163	1.000
1078.409	-1.000
1078.655	2.000
1078.901	1.000
1079.147	-5.000
1079.393	-4.000
1079.639	-4.000
1079.885	-1.000
1080.131	-2.000
1080.377	-7.000
1080.623	1.000
1080.869	-2.000
1081.115	-1.000
1081.361	2.000
1081.606	-1.000
1081.852	3.000
1082.098	2.000
1082.344	1.000
1082.590	0.000
1082.836	0.000
1083.082	4.000
1083.328	2.000
1083.574	-3.000
1083.820	-3.000
1084.065	-4.000
1084.311	2.000
1084.557	-2.000
1084.803	-2.000
1085.049	2.000
1085.295	-2.000
1085.541	1.000
1085.786	0.000
1086.032	3.000
1086.278	-2.000
1086.524	1.000
1086.770	-1.000
1087.015	-1.000
1087.261	1.000
1087.507	-3.000
1087.753	-5.000
1087.998	-6.000
1088.244	-6.000
1088.490	-3.000
1088.736	-2.000
1088.981	2.000
1089.227	3.000
1089.473	-1.000
1089.719	-5.000
1089.964	-1.000
1090.210	-3.000
1090.456	-1.000
1090.701	3.000
1090.947	3.000
1091.193	0.000
1091.438	-2.000
1091.684	-3.000
1091.930	-4.000
1092.175	0.000
1092.421	-5.000
1092.666	0.000
1092.912	2.000
1093.158	1.000
1093.403	-1.000
1093.649	0.000
1093.894	-3.000
1094.140	-2.000
1094.386	-2.000
1094.631	-2.000
1094.877	-7.000
1095.122	2.000
1095.368	2.000
1095.613	-2.000
1095.859	4.000
1096.104	0.000
1096.350	-5.000
1096.595	0.000
1096.841	-1.000
1097.086	4.000
1097.332	-3.000
1097.577	-1.000
1097.823	0.000
1098.068	2.000
1098.314	2.000
1098.559	1.000
1098.805	2.000
1099.050	-2.000
1099.295	2.000
1099.541	-2.000
1099.786	-2.000
+++++End Spectral Data+++++
