Spectrometer Data
EN
------------------------------
Saving Time:Wed, Jan 21, 2026 13:53:45
Device Name:Aurora 4000
Version Info:V9_84
Serial Number:220120190816098402001100
Integral Time(æs):5000
Avg Count:1
Smoothness:0
Data Type:(0 1)Wavelength-Delete Dark
X-Axis Unit:nm
Y-Axis Unit:counts
Pixel Count:3482
Reserve0:250
Other Description:
+++++Begin Spectral Data+++++
200.149	-1.000
200.421	0.000
200.693	-6.000
200.966	1.000
201.238	-1.000
201.510	0.000
201.782	-2.000
202.054	-1.000
202.326	-5.000
202.598	-1.000
202.870	3.000
203.142	-3.000
203.414	-5.000
203.686	-3.000
203.958	-2.000
204.230	-6.000
204.502	-1.000
204.774	1.000
205.046	0.000
205.318	1.000
205.590	0.000
205.861	3.000
206.133	-5.000
206.405	0.000
206.677	-2.000
206.949	0.000
207.221	-1.000
207.493	-5.000
207.765	-2.000
208.037	-1.000
208.308	3.000
208.580	1.000
208.852	3.000
209.124	0.000
209.396	-2.000
209.668	-2.000
209.939	-2.000
210.211	-2.000
210.483	0.000
210.755	0.000
211.027	3.000
211.298	-1.000
211.570	3.000
211.842	1.000
212.114	0.000
212.385	-1.000
212.657	1.000
212.929	-2.000
213.200	2.000
213.472	-2.000
213.744	-2.000
214.016	-3.000
214.287	-4.000
214.559	-4.000
214.831	-2.000
215.102	-1.000
215.374	2.000
215.645	2.000
215.917	4.000
216.189	1.000
216.460	3.000
216.732	-5.000
217.004	-4.000
217.275	-3.000
217.547	0.000
217.818	1.000
218.090	-2.000
218.361	-2.000
218.633	2.000
218.904	-3.000
219.176	1.000
219.448	2.000
219.719	5.000
219.991	-2.000
220.262	1.000
220.534	-1.000
220.805	-1.000
221.076	-1.000
221.348	-1.000
221.619	4.000
221.891	-4.000
222.162	0.000
222.434	-1.000
222.705	-1.000
222.977	-3.000
223.248	-5.000
223.519	-5.000
223.791	-3.000
224.062	-5.000
224.333	5.000
224.605	2.000
224.876	-3.000
225.148	-4.000
225.419	1.000
225.690	1.000
225.962	-2.000
226.233	-4.000
226.504	1.000
226.775	2.000
227.047	-1.000
227.318	1.000
227.589	2.000
227.861	-1.000
228.132	-3.000
228.403	-2.000
228.674	-5.000
228.946	-3.000
229.217	2.000
229.488	2.000
229.759	2.000
230.030	-2.000
230.302	-2.000
230.573	-3.000
230.844	-2.000
231.115	-6.000
231.386	-4.000
231.657	1.000
231.929	0.000
232.200	1.000
232.471	-3.000
232.742	-1.000
233.013	-7.000
233.284	-1.000
233.555	-4.000
233.826	-1.000
234.097	-6.000
234.369	-1.000
234.640	1.000
234.911	0.000
235.182	-2.000
235.453	-1.000
235.724	-1.000
235.995	-2.000
236.266	1.000
236.537	1.000
236.808	-1.000
237.079	-3.000
237.350	-1.000
237.621	3.000
237.892	0.000
238.163	4.000
238.434	-4.000
238.705	3.000
238.975	-2.000
239.246	-2.000
239.517	-3.000
239.788	-3.000
240.059	3.000
240.330	-2.000
240.601	-6.000
240.872	-3.000
241.143	-2.000
241.413	-2.000
241.684	4.000
241.955	-4.000
242.226	0.000
242.497	0.000
242.768	1.000
243.038	-2.000
243.309	-1.000
243.580	2.000
243.851	-1.000
244.122	0.000
244.392	-5.000
244.663	-2.000
244.934	-3.000
245.205	1.000
245.475	-3.000
245.746	4.000
246.017	-2.000
246.288	0.000
246.558	1.000
246.829	0.000
247.100	-3.000
247.370	0.000
247.641	2.000
247.912	-2.000
248.182	-6.000
248.453	-4.000
248.724	0.000
248.994	-6.000
249.265	-5.000
249.535	-5.000
249.806	-1.000
250.077	-8.000
250.347	-1.000
250.618	3.000
250.888	0.000
251.159	-2.000
251.430	-3.000
251.700	-4.000
251.971	-3.000
252.241	2.000
252.512	2.000
252.782	2.000
253.053	-5.000
253.323	-6.000
253.594	3.000
253.864	-3.000
254.135	-3.000
254.405	-6.000
254.676	0.000
254.946	-2.000
255.216	-3.000
255.487	-2.000
255.757	-4.000
256.028	0.000
256.298	0.000
256.569	2.000
256.839	-6.000
257.109	-2.000
257.380	-1.000
257.650	-1.000
257.920	2.000
258.191	0.000
258.461	1.000
258.731	-3.000
259.002	-5.000
259.272	-6.000
259.542	-6.000
259.813	-4.000
260.083	2.000
260.353	0.000
260.624	-6.000
260.894	-2.000
261.164	0.000
261.434	-1.000
261.705	0.000
261.975	1.000
262.245	-3.000
262.515	-1.000
262.786	2.000
263.056	0.000
263.326	-2.000
263.596	0.000
263.866	3.000
264.137	-3.000
264.407	2.000
264.677	-1.000
264.947	-1.000
265.217	-2.000
265.487	-1.000
265.757	-3.000
266.027	0.000
266.298	-3.000
266.568	-1.000
266.838	-4.000
267.108	-4.000
267.378	-5.000
267.648	-3.000
267.918	-3.000
268.188	-6.000
268.458	-8.000
268.728	-5.000
268.998	-4.000
269.268	-3.000
269.538	-1.000
269.808	-3.000
270.078	1.000
270.348	-2.000
270.618	0.000
270.888	-1.000
271.158	-4.000
271.428	-3.000
271.698	-4.000
271.968	1.000
272.238	-5.000
272.508	-4.000
272.778	-6.000
273.048	-8.000
273.318	-3.000
273.587	-6.000
273.857	-2.000
274.127	-2.000
274.397	2.000
274.667	-3.000
274.937	-6.000
275.207	-3.000
275.476	-2.000
275.746	-1.000
276.016	-1.000
276.286	0.000
276.556	-3.000
276.826	0.000
277.095	3.000
277.365	1.000
277.635	-2.000
277.905	-2.000
278.174	-3.000
278.444	-1.000
278.714	-2.000
278.984	-7.000
279.253	-5.000
279.523	1.000
279.793	-5.000
280.062	-3.000
280.332	-5.000
280.602	-5.000
280.871	-4.000
281.141	-6.000
281.411	-5.000
281.680	-1.000
281.950	-2.000
282.220	-6.000
282.489	-6.000
282.759	3.000
283.029	-2.000
283.298	1.000
283.568	-4.000
283.837	0.000
284.107	-2.000
284.376	-3.000
284.646	1.000
284.916	-2.000
285.185	-3.000
285.455	-3.000
285.724	-3.000
285.994	-6.000
286.263	-2.000
286.533	-2.000
286.802	0.000
287.072	-4.000
287.341	-5.000
287.611	0.000
287.880	-3.000
288.149	-4.000
288.419	-2.000
288.688	-5.000
288.958	-3.000
289.227	-5.000
289.497	-1.000
289.766	-5.000
290.035	-1.000
290.305	-2.000
290.574	-1.000
290.844	-6.000
291.113	1.000
291.382	-5.000
291.652	0.000
291.921	1.000
292.190	-1.000
292.460	-3.000
292.729	1.000
292.998	-2.000
293.268	0.000
293.537	-4.000
293.806	-5.000
294.075	-3.000
294.345	-1.000
294.614	-4.000
294.883	-5.000
295.152	-6.000
295.422	-2.000
295.691	-1.000
295.960	-5.000
296.229	-5.000
296.498	-1.000
296.768	1.000
297.037	-1.000
297.306	-1.000
297.575	-5.000
297.844	-1.000
298.114	-1.000
298.383	-2.000
298.652	-3.000
298.921	0.000
299.190	-8.000
299.459	-2.000
299.728	-6.000
299.997	-3.000
300.266	0.000
300.536	-2.000
300.805	-3.000
301.074	-4.000
301.343	-3.000
301.612	-2.000
301.881	-2.000
302.150	-6.000
302.419	-2.000
302.688	0.000
302.957	-2.000
303.226	-4.000
303.495	-7.000
303.764	-3.000
304.033	1.000
304.302	-4.000
304.571	-4.000
304.840	-2.000
305.109	-3.000
305.378	-2.000
305.646	-3.000
305.915	-6.000
306.184	-2.000
306.453	-2.000
306.722	-2.000
306.991	-7.000
307.260	-6.000
307.529	-6.000
307.798	-4.000
308.066	0.000
308.335	-3.000
308.604	-2.000
308.873	0.000
309.142	-2.000
309.411	-5.000
309.679	1.000
309.948	1.000
310.217	-1.000
310.486	-4.000
310.755	-7.000
311.023	1.000
311.292	-1.000
311.561	1.000
311.830	-2.000
312.098	-2.000
312.367	2.000
312.636	-1.000
312.904	-4.000
313.173	0.000
313.442	-1.000
313.711	-5.000
313.979	-3.000
314.248	-7.000
314.517	-2.000
314.785	-2.000
315.054	-3.000
315.322	-2.000
315.591	-3.000
315.860	-6.000
316.128	-5.000
316.397	-5.000
316.665	-7.000
316.934	0.000
317.203	-4.000
317.471	-2.000
317.740	-3.000
318.008	-1.000
318.277	2.000
318.545	-2.000
318.814	-1.000
319.082	-3.000
319.351	-1.000
319.619	-3.000
319.888	-3.000
320.156	3.000
320.425	-2.000
320.693	-3.000
320.962	-4.000
321.230	-6.000
321.499	-2.000
321.767	-1.000
322.036	-2.000
322.304	-4.000
322.573	-3.000
322.841	-1.000
323.109	-7.000
323.378	-3.000
323.646	-1.000
323.914	-2.000
324.183	1.000
324.451	-8.000
324.720	-4.000
324.988	-3.000
325.256	-2.000
325.525	0.000
325.793	0.000
326.061	1.000
326.330	0.000
326.598	-3.000
326.866	-2.000
327.134	0.000
327.403	-5.000
327.671	2.000
327.939	1.000
328.207	0.000
328.476	1.000
328.744	-3.000
329.012	2.000
329.280	-5.000
329.549	-2.000
329.817	-8.000
330.085	-2.000
330.353	-4.000
330.621	1.000
330.889	-2.000
331.158	-2.000
331.426	-4.000
331.694	-4.000
331.962	-2.000
332.230	-3.000
332.498	-1.000
332.766	2.000
333.035	-4.000
333.303	0.000
333.571	0.000
333.839	-1.000
334.107	2.000
334.375	1.000
334.643	-3.000
334.911	3.000
335.179	0.000
335.447	1.000
335.715	-6.000
335.983	-7.000
336.251	-5.000
336.519	-1.000
336.787	0.000
337.055	-4.000
337.323	-2.000
337.591	4.000
337.859	1.000
338.127	-4.000
338.395	1.000
338.663	-2.000
338.931	0.000
339.199	1.000
339.467	-6.000
339.734	-4.000
340.002	-1.000
340.270	-1.000
340.538	-1.000
340.806	-2.000
341.074	0.000
341.342	-5.000
341.610	-2.000
341.877	-1.000
342.145	-3.000
342.413	-1.000
342.681	-4.000
342.949	-1.000
343.216	-7.000
343.484	-3.000
343.752	0.000
344.020	-1.000
344.288	-3.000
344.555	-6.000
344.823	-6.000
345.091	-2.000
345.359	-1.000
345.626	-2.000
345.894	-3.000
346.162	-2.000
346.429	-2.000
346.697	1.000
346.965	4.000
347.232	-3.000
347.500	3.000
347.768	3.000
348.035	2.000
348.303	-5.000
348.571	0.000
348.838	1.000
349.106	-4.000
349.374	-2.000
349.641	0.000
349.909	-2.000
350.176	2.000
350.444	-3.000
350.712	-6.000
350.979	-2.000
351.247	0.000
351.514	1.000
351.782	1.000
352.049	0.000
352.317	1.000
352.584	-5.000
352.852	-2.000
353.119	-6.000
353.387	-1.000
353.654	-5.000
353.922	-5.000
354.189	1.000
354.457	-1.000
354.724	-2.000
354.992	1.000
355.259	-5.000
355.526	2.000
355.794	-3.000
356.061	-4.000
356.329	-4.000
356.596	-5.000
356.863	-2.000
357.131	-1.000
357.398	-3.000
357.666	0.000
357.933	1.000
358.200	-3.000
358.468	-1.000
358.735	-1.000
359.002	-2.000
359.270	-2.000
359.537	-5.000
359.804	1.000
360.071	3.000
360.339	-4.000
360.606	-3.000
360.873	-2.000
361.141	3.000
361.408	-3.000
361.675	6.000
361.942	-4.000
362.210	4.000
362.477	0.000
362.744	0.000
363.011	-2.000
363.278	-1.000
363.546	-3.000
363.813	0.000
364.080	-6.000
364.347	-5.000
364.614	-9.000
364.881	-3.000
365.148	1.000
365.416	-2.000
365.683	-1.000
365.950	4.000
366.217	0.000
366.484	1.000
366.751	3.000
367.018	1.000
367.285	2.000
367.552	-2.000
367.819	3.000
368.086	-6.000
368.354	1.000
368.621	0.000
368.888	0.000
369.155	1.000
369.422	0.000
369.689	1.000
369.956	1.000
370.223	-5.000
370.490	3.000
370.757	-2.000
371.024	-1.000
371.290	-2.000
371.557	0.000
371.824	-1.000
372.091	2.000
372.358	0.000
372.625	3.000
372.892	-2.000
373.159	1.000
373.426	2.000
373.693	2.000
373.960	1.000
374.226	-2.000
374.493	1.000
374.760	-2.000
375.027	4.000
375.294	0.000
375.561	0.000
375.827	-2.000
376.094	0.000
376.361	-5.000
376.628	-3.000
376.895	-2.000
377.161	3.000
377.428	1.000
377.695	1.000
377.962	2.000
378.228	1.000
378.495	2.000
378.762	2.000
379.029	-6.000
379.295	4.000
379.562	0.000
379.829	-4.000
380.095	-1.000
380.362	-1.000
380.629	1.000
380.896	1.000
381.162	-1.000
381.429	0.000
381.695	-2.000
381.962	0.000
382.229	-2.000
382.495	0.000
382.762	1.000
383.029	4.000
383.295	-3.000
383.562	-5.000
383.828	-3.000
384.095	3.000
384.361	2.000
384.628	1.000
384.895	4.000
385.161	1.000
385.428	-2.000
385.694	-1.000
385.961	-1.000
386.227	-1.000
386.494	1.000
386.760	3.000
387.027	-3.000
387.293	1.000
387.560	-3.000
387.826	2.000
388.092	-2.000
388.359	-1.000
388.625	2.000
388.892	-3.000
389.158	-3.000
389.425	4.000
389.691	-4.000
389.957	-5.000
390.224	1.000
390.490	1.000
390.757	2.000
391.023	-1.000
391.289	-1.000
391.556	7.000
391.822	1.000
392.088	-2.000
392.355	3.000
392.621	-1.000
392.887	3.000
393.154	2.000
393.420	3.000
393.686	-1.000
393.952	0.000
394.219	-3.000
394.485	3.000
394.751	1.000
395.017	-1.000
395.284	-1.000
395.550	0.000
395.816	-3.000
396.082	0.000
396.349	-1.000
396.615	1.000
396.881	-3.000
397.147	-5.000
397.413	-5.000
397.679	-4.000
397.946	-7.000
398.212	-1.000
398.478	-2.000
398.744	-1.000
399.010	-4.000
399.276	-1.000
399.542	-4.000
399.808	-2.000
400.075	1.000
400.341	0.000
400.607	-3.000
400.873	-2.000
401.139	-1.000
401.405	-4.000
401.671	-3.000
401.937	-4.000
402.203	1.000
402.469	1.000
402.735	0.000
403.001	-2.000
403.267	-3.000
403.533	-3.000
403.799	-2.000
404.065	3.000
404.331	3.000
404.597	-4.000
404.863	0.000
405.129	-4.000
405.395	0.000
405.661	0.000
405.927	2.000
406.192	-3.000
406.458	2.000
406.724	-2.000
406.990	1.000
407.256	3.000
407.522	-4.000
407.788	3.000
408.054	-2.000
408.319	3.000
408.585	-4.000
408.851	-2.000
409.117	-4.000
409.383	-3.000
409.649	-2.000
409.914	-2.000
410.180	-6.000
410.446	-2.000
410.712	1.000
410.977	-3.000
411.243	-1.000
411.509	0.000
411.775	0.000
412.040	-5.000
412.306	-4.000
412.572	1.000
412.838	-6.000
413.103	0.000
413.369	-2.000
413.635	-1.000
413.900	-4.000
414.166	1.000
414.432	0.000
414.697	-2.000
414.963	0.000
415.229	0.000
415.494	0.000
415.760	-3.000
416.025	-4.000
416.291	-5.000
416.557	-3.000
416.822	-4.000
417.088	-1.000
417.353	0.000
417.619	5.000
417.884	-3.000
418.150	1.000
418.416	-3.000
418.681	-3.000
418.947	-4.000
419.212	0.000
419.478	-4.000
419.743	-5.000
420.009	-2.000
420.274	0.000
420.540	-3.000
420.805	-7.000
421.071	-1.000
421.336	-2.000
421.601	-5.000
421.867	0.000
422.132	1.000
422.398	0.000
422.663	-1.000
422.929	-1.000
423.194	-3.000
423.459	4.000
423.725	-7.000
423.990	-2.000
424.256	-4.000
424.521	-3.000
424.786	-2.000
425.052	2.000
425.317	-2.000
425.582	-2.000
425.848	0.000
426.113	-3.000
426.378	-1.000
426.643	0.000
426.909	-2.000
427.174	-3.000
427.439	-3.000
427.705	-3.000
427.970	2.000
428.235	-1.000
428.500	-1.000
428.766	-2.000
429.031	-2.000
429.296	-7.000
429.561	1.000
429.826	4.000
430.092	-4.000
430.357	-2.000
430.622	-3.000
430.887	-5.000
431.152	-1.000
431.417	-4.000
431.683	-3.000
431.948	-3.000
432.213	3.000
432.478	5.000
432.743	-1.000
433.008	1.000
433.273	0.000
433.538	-1.000
433.803	1.000
434.069	-3.000
434.334	1.000
434.599	-3.000
434.864	0.000
435.129	0.000
435.394	-4.000
435.659	1.000
435.924	-1.000
436.189	-2.000
436.454	-2.000
436.719	-3.000
436.984	-2.000
437.249	-2.000
437.514	-2.000
437.779	-3.000
438.044	-5.000
438.309	-2.000
438.574	-2.000
438.838	-1.000
439.103	-9.000
439.368	-5.000
439.633	-5.000
439.898	-1.000
440.163	-2.000
440.428	-3.000
440.693	2.000
440.958	-6.000
441.222	-6.000
441.487	-6.000
441.752	-5.000
442.017	-7.000
442.282	-1.000
442.547	-2.000
442.811	-3.000
443.076	-2.000
443.341	-2.000
443.606	-7.000
443.871	-3.000
444.135	-5.000
444.400	-3.000
444.665	-3.000
444.930	-2.000
445.194	-1.000
445.459	-3.000
445.724	-1.000
445.989	-6.000
446.253	-1.000
446.518	-4.000
446.783	-1.000
447.047	-3.000
447.312	1.000
447.577	2.000
447.841	3.000
448.106	-5.000
448.371	-4.000
448.635	-3.000
448.900	-2.000
449.165	1.000
449.429	-3.000
449.694	-4.000
449.958	-5.000
450.223	-5.000
450.488	-7.000
450.752	-1.000
451.017	-2.000
451.281	-3.000
451.546	-2.000
451.810	0.000
452.075	-4.000
452.339	-5.000
452.604	0.000
452.868	-4.000
453.133	-6.000
453.397	-3.000
453.662	-3.000
453.926	-2.000
454.191	-1.000
454.455	-7.000
454.720	-1.000
454.984	-3.000
455.249	-1.000
455.513	3.000
455.778	-3.000
456.042	1.000
456.306	-4.000
456.571	-1.000
456.835	0.000
457.100	1.000
457.364	-5.000
457.628	-7.000
457.893	2.000
458.157	-6.000
458.421	-3.000
458.686	-5.000
458.950	-1.000
459.214	-4.000
459.479	0.000
459.743	-4.000
460.007	-5.000
460.272	-4.000
460.536	-3.000
460.800	3.000
461.064	-4.000
461.329	0.000
461.593	-2.000
461.857	-3.000
462.121	-3.000
462.386	-2.000
462.650	-1.000
462.914	-7.000
463.178	0.000
463.442	1.000
463.707	0.000
463.971	-5.000
464.235	2.000
464.499	0.000
464.763	1.000
465.027	-3.000
465.292	-1.000
465.556	-5.000
465.820	-5.000
466.084	-6.000
466.348	-4.000
466.612	-4.000
466.876	-1.000
467.140	-6.000
467.404	1.000
467.668	-7.000
467.933	-2.000
468.197	1.000
468.461	0.000
468.725	-9.000
468.989	-1.000
469.253	-1.000
469.517	-4.000
469.781	1.000
470.045	-3.000
470.309	-4.000
470.573	-4.000
470.837	-4.000
471.101	-2.000
471.365	-2.000
471.629	-4.000
471.892	-3.000
472.156	1.000
472.420	-3.000
472.684	-4.000
472.948	-1.000
473.212	-3.000
473.476	-2.000
473.740	-5.000
474.004	3.000
474.268	-5.000
474.531	-3.000
474.795	0.000
475.059	-2.000
475.323	-5.000
475.587	-3.000
475.851	0.000
476.114	1.000
476.378	-3.000
476.642	-6.000
476.906	-1.000
477.170	1.000
477.433	-5.000
477.697	-4.000
477.961	-5.000
478.225	-4.000
478.488	-5.000
478.752	-5.000
479.016	-8.000
479.280	-7.000
479.543	-6.000
479.807	-1.000
480.071	-1.000
480.334	-1.000
480.598	-4.000
480.862	0.000
481.125	-2.000
481.389	-5.000
481.653	0.000
481.916	-2.000
482.180	-1.000
482.444	0.000
482.707	-5.000
482.971	-2.000
483.234	2.000
483.498	-3.000
483.762	-3.000
484.025	-3.000
484.289	-4.000
484.552	0.000
484.816	-7.000
485.079	-1.000
485.343	-5.000
485.607	-1.000
485.870	-2.000
486.134	0.000
486.397	0.000
486.661	-4.000
486.924	-4.000
487.188	-3.000
487.451	-10.000
487.715	-2.000
487.978	-6.000
488.241	0.000
488.505	2.000
488.768	-2.000
489.032	-1.000
489.295	-2.000
489.559	-4.000
489.822	0.000
490.085	1.000
490.349	3.000
490.612	-1.000
490.876	-2.000
491.139	-1.000
491.402	-2.000
491.666	1.000
491.929	0.000
492.192	0.000
492.456	-3.000
492.719	-2.000
492.982	1.000
493.246	-2.000
493.509	-2.000
493.772	1.000
494.035	-2.000
494.299	0.000
494.562	-2.000
494.825	-2.000
495.088	-5.000
495.352	-3.000
495.615	-2.000
495.878	-3.000
496.141	-5.000
496.405	-2.000
496.668	0.000
496.931	-5.000
497.194	-1.000
497.457	2.000
497.721	0.000
497.984	-3.000
498.247	1.000
498.510	1.000
498.773	-4.000
499.036	0.000
499.299	-4.000
499.562	-3.000
499.826	-1.000
500.089	-1.000
500.352	3.000
500.615	-2.000
500.878	0.000
501.141	2.000
501.404	1.000
501.667	-1.000
501.930	3.000
502.193	-3.000
502.456	-2.000
502.719	-3.000
502.982	-2.000
503.245	0.000
503.508	4.000
503.771	2.000
504.034	-1.000
504.297	1.000
504.560	-1.000
504.823	1.000
505.086	1.000
505.349	-1.000
505.612	1.000
505.875	-1.000
506.138	4.000
506.401	-2.000
506.664	0.000
506.927	6.000
507.189	3.000
507.452	-1.000
507.715	-1.000
507.978	4.000
508.241	3.000
508.504	-1.000
508.767	2.000
509.029	4.000
509.292	-2.000
509.555	0.000
509.818	-1.000
510.081	-2.000
510.343	2.000
510.606	1.000
510.869	2.000
511.132	1.000
511.395	5.000
511.657	1.000
511.920	-1.000
512.183	0.000
512.446	-4.000
512.708	-2.000
512.971	0.000
513.234	4.000
513.496	4.000
513.759	-3.000
514.022	0.000
514.284	-4.000
514.547	-1.000
514.810	2.000
515.072	4.000
515.335	1.000
515.598	1.000
515.860	-2.000
516.123	-2.000
516.386	-1.000
516.648	1.000
516.911	0.000
517.173	2.000
517.436	-1.000
517.698	2.000
517.961	-6.000
518.224	0.000
518.486	1.000
518.749	1.000
519.011	1.000
519.274	3.000
519.536	5.000
519.799	-1.000
520.061	5.000
520.324	2.000
520.586	1.000
520.849	-3.000
521.111	1.000
521.374	0.000
521.636	1.000
521.899	2.000
522.161	2.000
522.423	-4.000
522.686	2.000
522.948	-2.000
523.211	1.000
523.473	-1.000
523.736	-4.000
523.998	1.000
524.260	0.000
524.523	-3.000
524.785	2.000
525.047	1.000
525.310	-3.000
525.572	-2.000
525.834	4.000
526.097	-1.000
526.359	-1.000
526.621	0.000
526.884	0.000
527.146	-4.000
527.408	-2.000
527.670	2.000
527.933	2.000
528.195	3.000
528.457	1.000
528.719	-3.000
528.982	-4.000
529.244	-4.000
529.506	2.000
529.768	3.000
530.031	0.000
530.293	2.000
530.555	-1.000
530.817	-1.000
531.079	2.000
531.342	2.000
531.604	2.000
531.866	0.000
532.128	-5.000
532.390	2.000
532.652	1.000
532.914	4.000
533.176	-1.000
533.439	1.000
533.701	-1.000
533.963	1.000
534.225	3.000
534.487	0.000
534.749	2.000
535.011	2.000
535.273	2.000
535.535	1.000
535.797	-2.000
536.059	0.000
536.321	1.000
536.583	-1.000
536.845	0.000
537.107	-2.000
537.369	0.000
537.631	-4.000
537.893	-4.000
538.155	-1.000
538.417	1.000
538.679	1.000
538.941	2.000
539.203	-2.000
539.465	-1.000
539.727	-1.000
539.989	5.000
540.251	4.000
540.512	3.000
540.774	2.000
541.036	1.000
541.298	1.000
541.560	1.000
541.822	-1.000
542.084	1.000
542.345	-2.000
542.607	1.000
542.869	1.000
543.131	3.000
543.393	0.000
543.655	-1.000
543.916	1.000
544.178	-3.000
544.440	-3.000
544.702	-1.000
544.963	-8.000
545.225	-1.000
545.487	-1.000
545.749	-1.000
546.010	-2.000
546.272	0.000
546.534	-1.000
546.795	3.000
547.057	-1.000
547.319	1.000
547.581	-2.000
547.842	2.000
548.104	-1.000
548.366	-3.000
548.627	-1.000
548.889	2.000
549.150	-4.000
549.412	4.000
549.674	-1.000
549.935	-4.000
550.197	-4.000
550.459	-2.000
550.720	0.000
550.982	0.000
551.243	1.000
551.505	3.000
551.766	1.000
552.028	0.000
552.289	-1.000
552.551	3.000
552.813	-3.000
553.074	3.000
553.336	0.000
553.597	2.000
553.859	-3.000
554.120	1.000
554.382	1.000
554.643	2.000
554.904	4.000
555.166	-1.000
555.427	-1.000
555.689	-2.000
555.950	-2.000
556.212	2.000
556.473	-1.000
556.735	2.000
556.996	-2.000
557.257	-2.000
557.519	0.000
557.780	-2.000
558.041	3.000
558.303	2.000
558.564	-2.000
558.826	-1.000
559.087	-3.000
559.348	0.000
559.609	-1.000
559.871	1.000
560.132	0.000
560.393	3.000
560.655	-2.000
560.916	-1.000
561.177	-1.000
561.439	-5.000
561.700	-3.000
561.961	1.000
562.222	2.000
562.484	4.000
562.745	2.000
563.006	0.000
563.267	3.000
563.528	-2.000
563.790	-2.000
564.051	-5.000
564.312	-1.000
564.573	-1.000
564.834	-5.000
565.095	3.000
565.357	3.000
565.618	-2.000
565.879	-3.000
566.140	-1.000
566.401	-2.000
566.662	0.000
566.923	-1.000
567.184	-2.000
567.446	1.000
567.707	4.000
567.968	-5.000
568.229	-3.000
568.490	-2.000
568.751	1.000
569.012	0.000
569.273	-3.000
569.534	-4.000
569.795	-1.000
570.056	0.000
570.317	-4.000
570.578	-2.000
570.839	-2.000
571.100	0.000
571.361	-3.000
571.622	-2.000
571.883	-4.000
572.144	-3.000
572.405	-3.000
572.666	-1.000
572.927	-5.000
573.188	-3.000
573.449	-4.000
573.709	-6.000
573.970	-4.000
574.231	0.000
574.492	3.000
574.753	-2.000
575.014	-2.000
575.275	-2.000
575.536	1.000
575.796	0.000
576.057	2.000
576.318	2.000
576.579	0.000
576.840	-2.000
577.100	0.000
577.361	0.000
577.622	-2.000
577.883	-1.000
578.144	-4.000
578.404	0.000
578.665	0.000
578.926	-3.000
579.187	-1.000
579.447	-3.000
579.708	-2.000
579.969	-1.000
580.229	1.000
580.490	-2.000
580.751	-2.000
581.012	0.000
581.272	-2.000
581.533	1.000
581.794	-2.000
582.054	-2.000
582.315	-5.000
582.576	2.000
582.836	-2.000
583.097	0.000
583.357	-4.000
583.618	-3.000
583.879	-1.000
584.139	3.000
584.400	-3.000
584.660	5.000
584.921	-4.000
585.181	-1.000
585.442	2.000
585.703	-1.000
585.963	1.000
586.224	-1.000
586.484	0.000
586.745	-4.000
587.005	-4.000
587.266	4.000
587.526	-6.000
587.787	0.000
588.047	-2.000
588.308	-5.000
588.568	-9.000
588.829	-3.000
589.089	-5.000
589.349	2.000
589.610	-2.000
589.870	-3.000
590.131	-1.000
590.391	2.000
590.651	4.000
590.912	2.000
591.172	-2.000
591.433	1.000
591.693	2.000
591.953	-6.000
592.214	0.000
592.474	-2.000
592.734	0.000
592.995	-1.000
593.255	2.000
593.515	0.000
593.776	-2.000
594.036	-4.000
594.296	-1.000
594.557	-2.000
594.817	-5.000
595.077	-2.000
595.337	-4.000
595.598	-4.000
595.858	-4.000
596.118	1.000
596.378	1.000
596.639	-3.000
596.899	-2.000
597.159	-12.000
597.419	-2.000
597.679	-2.000
597.939	-5.000
598.200	-4.000
598.460	-5.000
598.720	-2.000
598.980	-2.000
599.240	-2.000
599.500	-5.000
599.761	-5.000
600.021	-5.000
600.281	-3.000
600.541	-3.000
600.801	-2.000
601.061	0.000
601.321	-3.000
601.581	-4.000
601.841	-5.000
602.101	-2.000
602.361	-2.000
602.621	-8.000
602.881	-1.000
603.142	-2.000
603.402	-7.000
603.662	-3.000
603.922	-5.000
604.182	-4.000
604.442	-1.000
604.702	-3.000
604.961	-1.000
605.221	-4.000
605.481	-1.000
605.741	-2.000
606.001	-2.000
606.261	6.000
606.521	-5.000
606.781	-4.000
607.041	-5.000
607.301	-2.000
607.561	-7.000
607.821	-5.000
608.081	-1.000
608.340	-3.000
608.600	-5.000
608.860	0.000
609.120	-2.000
609.380	3.000
609.640	-6.000
609.899	-5.000
610.159	-2.000
610.419	-5.000
610.679	3.000
610.939	-6.000
611.199	-2.000
611.458	-3.000
611.718	-1.000
611.978	-3.000
612.238	-4.000
612.497	-2.000
612.757	-2.000
613.017	-1.000
613.277	-3.000
613.536	1.000
613.796	1.000
614.056	-1.000
614.315	-2.000
614.575	-4.000
614.835	-4.000
615.094	-5.000
615.354	0.000
615.614	-4.000
615.873	-4.000
616.133	1.000
616.393	-4.000
616.652	-3.000
616.912	-6.000
617.171	-3.000
617.431	-1.000
617.691	-1.000
617.950	-3.000
618.210	-2.000
618.469	-3.000
618.729	-3.000
618.989	-7.000
619.248	-2.000
619.508	-6.000
619.767	1.000
620.027	-2.000
620.286	-2.000
620.546	-3.000
620.805	-5.000
621.065	-2.000
621.324	-1.000
621.584	-5.000
621.843	1.000
622.103	-3.000
622.362	0.000
622.622	-3.000
622.881	-5.000
623.140	-7.000
623.400	-5.000
623.659	-7.000
623.919	-5.000
624.178	-1.000
624.437	-4.000
624.697	-3.000
624.956	-2.000
625.216	-3.000
625.475	1.000
625.734	-1.000
625.994	-4.000
626.253	-2.000
626.512	-1.000
626.772	-2.000
627.031	2.000
627.290	2.000
627.550	-5.000
627.809	0.000
628.068	4.000
628.327	-3.000
628.587	-2.000
628.846	1.000
629.105	-4.000
629.364	1.000
629.624	-3.000
629.883	-5.000
630.142	-1.000
630.401	-1.000
630.661	-3.000
630.920	-2.000
631.179	-3.000
631.438	-1.000
631.697	0.000
631.957	-4.000
632.216	0.000
632.475	-1.000
632.734	-2.000
632.993	-3.000
633.252	0.000
633.511	0.000
633.770	-6.000
634.030	3.000
634.289	0.000
634.548	0.000
634.807	-3.000
635.066	-5.000
635.325	-3.000
635.584	0.000
635.843	-5.000
636.102	1.000
636.361	-1.000
636.620	0.000
636.879	-3.000
637.138	-1.000
637.397	-5.000
637.656	0.000
637.915	-3.000
638.174	1.000
638.433	-3.000
638.692	-1.000
638.951	-2.000
639.210	0.000
639.469	-8.000
639.728	2.000
639.987	0.000
640.246	-3.000
640.505	-8.000
640.764	3.000
641.023	2.000
641.282	0.000
641.540	1.000
641.799	0.000
642.058	-4.000
642.317	3.000
642.576	-2.000
642.835	0.000
643.094	2.000
643.352	3.000
643.611	0.000
643.870	-2.000
644.129	1.000
644.388	2.000
644.646	1.000
644.905	-2.000
645.164	-2.000
645.423	5.000
645.682	-1.000
645.940	-1.000
646.199	0.000
646.458	-3.000
646.716	-2.000
646.975	-2.000
647.234	-1.000
647.493	-4.000
647.751	0.000
648.010	-3.000
648.269	2.000
648.527	1.000
648.786	0.000
649.045	3.000
649.303	-8.000
649.562	-3.000
649.821	-2.000
650.079	3.000
650.338	-2.000
650.597	-5.000
650.855	-5.000
651.114	-6.000
651.372	-4.000
651.631	1.000
651.890	0.000
652.148	4.000
652.407	-4.000
652.665	-1.000
652.924	-5.000
653.182	-7.000
653.441	0.000
653.699	2.000
653.958	-4.000
654.216	-1.000
654.475	1.000
654.733	-1.000
654.992	-2.000
655.250	1.000
655.509	0.000
655.767	-4.000
656.026	-2.000
656.284	-3.000
656.543	-2.000
656.801	-1.000
657.059	-3.000
657.318	-2.000
657.576	-1.000
657.835	-4.000
658.093	1.000
658.351	0.000
658.610	-4.000
658.868	-5.000
659.127	1.000
659.385	3.000
659.643	1.000
659.902	3.000
660.160	0.000
660.418	2.000
660.677	-2.000
660.935	-5.000
661.193	-2.000
661.452	-3.000
661.710	-3.000
661.968	7.000
662.226	3.000
662.485	1.000
662.743	3.000
663.001	-1.000
663.259	3.000
663.518	2.000
663.776	0.000
664.034	0.000
664.292	-1.000
664.550	-4.000
664.809	-4.000
665.067	1.000
665.325	-3.000
665.583	0.000
665.841	2.000
666.099	-2.000
666.358	-2.000
666.616	-5.000
666.874	3.000
667.132	0.000
667.390	1.000
667.648	4.000
667.906	2.000
668.164	-2.000
668.423	1.000
668.681	0.000
668.939	0.000
669.197	-4.000
669.455	3.000
669.713	2.000
669.971	3.000
670.229	5.000
670.487	1.000
670.745	-2.000
671.003	1.000
671.261	-5.000
671.519	-3.000
671.777	-2.000
672.035	0.000
672.293	-1.000
672.551	-2.000
672.809	-7.000
673.067	-7.000
673.325	-6.000
673.583	-3.000
673.841	0.000
674.099	-1.000
674.356	4.000
674.614	-1.000
674.872	1.000
675.130	0.000
675.388	-1.000
675.646	1.000
675.904	-3.000
676.162	-2.000
676.419	-4.000
676.677	-2.000
676.935	1.000
677.193	-2.000
677.451	-2.000
677.709	-1.000
677.966	1.000
678.224	1.000
678.482	-3.000
678.740	3.000
678.998	1.000
679.255	-2.000
679.513	-3.000
679.771	-1.000
680.029	3.000
680.286	2.000
680.544	1.000
680.802	-3.000
681.059	0.000
681.317	-3.000
681.575	1.000
681.833	1.000
682.090	-3.000
682.348	1.000
682.606	-5.000
682.863	-1.000
683.121	3.000
683.379	-1.000
683.636	4.000
683.894	0.000
684.151	6.000
684.409	0.000
684.667	-3.000
684.924	-6.000
685.182	2.000
685.439	0.000
685.697	0.000
685.955	1.000
686.212	-1.000
686.470	-2.000
686.727	-2.000
686.985	2.000
687.242	-4.000
687.500	-1.000
687.757	-2.000
688.015	-7.000
688.272	1.000
688.530	0.000
688.787	0.000
689.045	-5.000
689.302	-3.000
689.560	-2.000
689.817	-4.000
690.075	-2.000
690.332	-4.000
690.589	-2.000
690.847	-5.000
691.104	0.000
691.362	-6.000
691.619	-2.000
691.876	4.000
692.134	-1.000
692.391	0.000
692.649	0.000
692.906	-5.000
693.163	0.000
693.421	-4.000
693.678	-1.000
693.935	-5.000
694.193	-3.000
694.450	-6.000
694.707	-2.000
694.965	0.000
695.222	-2.000
695.479	0.000
695.736	-3.000
695.994	-2.000
696.251	-2.000
696.508	-4.000
696.765	-1.000
697.023	5.000
697.280	-3.000
697.537	0.000
697.794	-2.000
698.052	-3.000
698.309	1.000
698.566	-3.000
698.823	-3.000
699.080	-3.000
699.338	0.000
699.595	1.000
699.852	-4.000
700.109	0.000
700.366	5.000
700.623	0.000
700.880	-1.000
701.137	-1.000
701.395	-7.000
701.652	-6.000
701.909	-3.000
702.166	1.000
702.423	-3.000
702.680	-6.000
702.937	2.000
703.194	4.000
703.451	2.000
703.708	1.000
703.965	-3.000
704.222	-1.000
704.479	-2.000
704.736	-2.000
704.993	-4.000
705.250	-1.000
705.507	-3.000
705.764	7.000
706.021	-1.000
706.278	-1.000
706.535	-2.000
706.792	0.000
707.049	5.000
707.306	0.000
707.563	-3.000
707.820	2.000
708.077	-4.000
708.334	-2.000
708.591	0.000
708.847	-4.000
709.104	1.000
709.361	1.000
709.618	-2.000
709.875	-4.000
710.132	-8.000
710.389	-1.000
710.645	-2.000
710.902	-6.000
711.159	2.000
711.416	-4.000
711.673	-4.000
711.930	-5.000
712.186	-3.000
712.443	0.000
712.700	-1.000
712.957	4.000
713.213	-5.000
713.470	2.000
713.727	5.000
713.984	-1.000
714.240	2.000
714.497	-5.000
714.754	-2.000
715.011	-4.000
715.267	-1.000
715.524	-7.000
715.781	-3.000
716.037	-5.000
716.294	-2.000
716.551	-5.000
716.807	-1.000
717.064	3.000
717.321	-1.000
717.577	3.000
717.834	0.000
718.090	-1.000
718.347	3.000
718.604	-2.000
718.860	3.000
719.117	-6.000
719.373	-1.000
719.630	-4.000
719.886	1.000
720.143	-2.000
720.400	0.000
720.656	-3.000
720.913	-1.000
721.169	-3.000
721.426	-3.000
721.682	3.000
721.939	0.000
722.195	-1.000
722.452	-5.000
722.708	-5.000
722.965	-1.000
723.221	-1.000
723.478	-4.000
723.734	3.000
723.990	-2.000
724.247	-1.000
724.503	-2.000
724.760	3.000
725.016	-1.000
725.273	-2.000
725.529	2.000
725.785	0.000
726.042	0.000
726.298	-4.000
726.554	2.000
726.811	3.000
727.067	-2.000
727.323	-3.000
727.580	0.000
727.836	0.000
728.092	1.000
728.349	-4.000
728.605	-4.000
728.861	-5.000
729.118	1.000
729.374	0.000
729.630	-5.000
729.886	0.000
730.143	1.000
730.399	2.000
730.655	-3.000
730.911	-3.000
731.168	2.000
731.424	-1.000
731.680	-1.000
731.936	2.000
732.193	0.000
732.449	-3.000
732.705	-2.000
732.961	-4.000
733.217	-2.000
733.473	0.000
733.730	-5.000
733.986	-1.000
734.242	-3.000
734.498	-3.000
734.754	-1.000
735.010	0.000
735.266	4.000
735.522	-3.000
735.778	0.000
736.035	3.000
736.291	-2.000
736.547	1.000
736.803	2.000
737.059	1.000
737.315	-4.000
737.571	-5.000
737.827	-5.000
738.083	-6.000
738.339	-8.000
738.595	-4.000
738.851	3.000
739.107	-7.000
739.363	-5.000
739.619	-2.000
739.875	-2.000
740.131	3.000
740.387	-2.000
740.643	-3.000
740.899	-4.000
741.155	-2.000
741.411	-2.000
741.666	-6.000
741.922	-3.000
742.178	-4.000
742.434	-4.000
742.690	-3.000
742.946	-1.000
743.202	0.000
743.458	-5.000
743.714	-3.000
743.969	-1.000
744.225	0.000
744.481	1.000
744.737	-2.000
744.993	0.000
745.249	0.000
745.504	0.000
745.760	1.000
746.016	-2.000
746.272	1.000
746.527	-3.000
746.783	-5.000
747.039	-1.000
747.295	-7.000
747.550	-3.000
747.806	-2.000
748.062	-8.000
748.318	-1.000
748.573	-5.000
748.829	1.000
749.085	0.000
749.340	-1.000
749.596	-2.000
749.852	-7.000
750.108	-4.000
750.363	0.000
750.619	1.000
750.874	-4.000
751.130	-7.000
751.386	-3.000
751.641	-3.000
751.897	-4.000
752.153	-2.000
752.408	0.000
752.664	-6.000
752.919	-3.000
753.175	-1.000
753.430	-5.000
753.686	0.000
753.942	1.000
754.197	-7.000
754.453	2.000
754.708	2.000
754.964	1.000
755.219	-1.000
755.475	-2.000
755.730	-1.000
755.986	-2.000
756.241	-5.000
756.497	-6.000
756.752	-4.000
757.008	0.000
757.263	-1.000
757.519	-3.000
757.774	-1.000
758.029	2.000
758.285	-2.000
758.540	0.000
758.796	-6.000
759.051	-4.000
759.307	-6.000
759.562	-7.000
759.817	-2.000
760.073	-5.000
760.328	2.000
760.583	-1.000
760.839	-4.000
761.094	-5.000
761.349	-4.000
761.605	0.000
761.860	-7.000
762.115	1.000
762.371	-2.000
762.626	-5.000
762.881	-7.000
763.137	1.000
763.392	-4.000
763.647	-3.000
763.902	-4.000
764.158	-1.000
764.413	-2.000
764.668	-4.000
764.923	-1.000
765.179	1.000
765.434	0.000
765.689	-4.000
765.944	-6.000
766.199	-2.000
766.455	-1.000
766.710	-2.000
766.965	-2.000
767.220	-1.000
767.475	0.000
767.730	-6.000
767.985	1.000
768.241	2.000
768.496	-8.000
768.751	-3.000
769.006	2.000
769.261	-1.000
769.516	-1.000
769.771	-4.000
770.026	0.000
770.281	0.000
770.536	-4.000
770.791	-5.000
771.047	-6.000
771.302	-6.000
771.557	-2.000
771.812	-1.000
772.067	1.000
772.322	-6.000
772.577	0.000
772.832	1.000
773.087	-3.000
773.342	0.000
773.597	0.000
773.852	-1.000
774.107	-4.000
774.361	-4.000
774.616	-2.000
774.871	-2.000
775.126	-5.000
775.381	-3.000
775.636	0.000
775.891	-5.000
776.146	-8.000
776.401	-1.000
776.656	-1.000
776.911	-1.000
777.165	-1.000
777.420	1.000
777.675	-5.000
777.930	1.000
778.185	-2.000
778.440	1.000
778.694	2.000
778.949	2.000
779.204	0.000
779.459	-2.000
779.714	-3.000
779.968	1.000
780.223	-3.000
780.478	-4.000
780.733	-1.000
780.988	2.000
781.242	-1.000
781.497	-2.000
781.752	-2.000
782.006	-5.000
782.261	-3.000
782.516	-5.000
782.771	0.000
783.025	-3.000
783.280	-3.000
783.535	-7.000
783.789	-3.000
784.044	-5.000
784.299	-2.000
784.553	-6.000
784.808	3.000
785.063	3.000
785.317	-5.000
785.572	1.000
785.826	0.000
786.081	0.000
786.336	0.000
786.590	-2.000
786.845	0.000
787.099	2.000
787.354	0.000
787.609	1.000
787.863	0.000
788.118	-4.000
788.372	2.000
788.627	0.000
788.881	2.000
789.136	-2.000
789.390	-4.000
789.645	-1.000
789.899	-1.000
790.154	-3.000
790.408	-7.000
790.663	-3.000
790.917	-2.000
791.172	-2.000
791.426	-3.000
791.680	-5.000
791.935	-3.000
792.189	-5.000
792.444	-6.000
792.698	-3.000
792.953	-2.000
793.207	-4.000
793.461	-4.000
793.716	-3.000
793.970	1.000
794.224	-1.000
794.479	-2.000
794.733	-5.000
794.987	-1.000
795.242	-2.000
795.496	-3.000
795.750	-8.000
796.005	-4.000
796.259	-1.000
796.513	-3.000
796.768	-2.000
797.022	-3.000
797.276	-3.000
797.530	-1.000
797.785	-4.000
798.039	3.000
798.293	-2.000
798.547	-4.000
798.802	-5.000
799.056	-4.000
799.310	-4.000
799.564	-2.000
799.819	2.000
800.073	3.000
800.327	-1.000
800.581	1.000
800.835	0.000
801.089	-3.000
801.344	-6.000
801.598	-4.000
801.852	1.000
802.106	0.000
802.360	0.000
802.614	-2.000
802.868	-4.000
803.122	-5.000
803.377	-3.000
803.631	-6.000
803.885	-2.000
804.139	-2.000
804.393	1.000
804.647	-3.000
804.901	0.000
805.155	-3.000
805.409	1.000
805.663	-4.000
805.917	1.000
806.171	-3.000
806.425	-6.000
806.679	-1.000
806.933	-5.000
807.187	-2.000
807.441	0.000
807.695	-5.000
807.949	-3.000
808.203	-1.000
808.457	-2.000
808.711	1.000
808.965	1.000
809.219	-4.000
809.473	1.000
809.726	-8.000
809.980	-1.000
810.234	-2.000
810.488	-3.000
810.742	-6.000
810.996	-2.000
811.250	-4.000
811.504	-3.000
811.757	-4.000
812.011	-3.000
812.265	-4.000
812.519	0.000
812.773	-3.000
813.027	-3.000
813.280	-3.000
813.534	-9.000
813.788	-3.000
814.042	-3.000
814.295	-4.000
814.549	-1.000
814.803	-2.000
815.057	-3.000
815.310	0.000
815.564	-3.000
815.818	-3.000
816.072	-6.000
816.325	-1.000
816.579	-3.000
816.833	-2.000
817.086	-2.000
817.340	-4.000
817.594	-4.000
817.848	-1.000
818.101	-2.000
818.355	-4.000
818.608	-1.000
818.862	-2.000
819.116	-2.000
819.369	-4.000
819.623	-4.000
819.877	-4.000
820.130	-5.000
820.384	-4.000
820.637	-9.000
820.891	-2.000
821.144	-4.000
821.398	-3.000
821.652	-3.000
821.905	-3.000
822.159	-3.000
822.412	-5.000
822.666	-9.000
822.919	-8.000
823.173	35.000
823.426	129.000
823.680	172.000
823.933	112.000
824.187	44.000
824.440	17.000
824.694	-5.000
824.947	-5.000
825.201	-7.000
825.454	-7.000
825.707	-6.000
825.961	-3.000
826.214	-6.000
826.468	0.000
826.721	1.000
826.975	-1.000
827.228	-6.000
827.481	-2.000
827.735	-4.000
827.988	-6.000
828.241	-3.000
828.495	29.000
828.748	21.000
829.001	-4.000
829.255	-7.000
829.508	-8.000
829.761	-6.000
830.015	-1.000
830.268	-1.000
830.521	-1.000
830.775	-4.000
831.028	-4.000
831.281	-6.000
831.534	-4.000
831.788	-2.000
832.041	0.000
832.294	-2.000
832.547	-3.000
832.801	-4.000
833.054	-4.000
833.307	-1.000
833.560	-6.000
833.813	0.000
834.067	-2.000
834.320	-2.000
834.573	-2.000
834.826	-1.000
835.079	-1.000
835.332	1.000
835.586	-2.000
835.839	-6.000
836.092	-4.000
836.345	-3.000
836.598	-2.000
836.851	0.000
837.104	-1.000
837.357	-3.000
837.611	-1.000
837.864	0.000
838.117	-2.000
838.370	-4.000
838.623	-5.000
838.876	-3.000
839.129	-4.000
839.382	-6.000
839.635	-6.000
839.888	-4.000
840.141	-2.000
840.394	1.000
840.647	0.000
840.900	-5.000
841.153	-1.000
841.406	1.000
841.659	-8.000
841.912	-2.000
842.165	-1.000
842.418	-2.000
842.671	-3.000
842.924	0.000
843.176	-6.000
843.429	-1.000
843.682	2.000
843.935	-7.000
844.188	-1.000
844.441	-5.000
844.694	0.000
844.947	-1.000
845.200	1.000
845.452	-3.000
845.705	-3.000
845.958	-2.000
846.211	0.000
846.464	1.000
846.717	-3.000
846.969	4.000
847.222	-6.000
847.475	-2.000
847.728	-7.000
847.981	-4.000
848.233	-4.000
848.486	-2.000
848.739	-1.000
848.992	-2.000
849.244	0.000
849.497	-5.000
849.750	-5.000
850.003	0.000
850.255	0.000
850.508	-1.000
850.761	-2.000
851.013	1.000
851.266	-1.000
851.519	-2.000
851.771	0.000
852.024	1.000
852.277	-3.000
852.529	0.000
852.782	-3.000
853.035	3.000
853.287	-3.000
853.540	5.000
853.792	-3.000
854.045	-3.000
854.298	-4.000
854.550	0.000
854.803	4.000
855.055	-4.000
855.308	-1.000
855.560	2.000
855.813	-1.000
856.066	-5.000
856.318	-3.000
856.571	-2.000
856.823	-8.000
857.076	1.000
857.328	0.000
857.581	-1.000
857.833	-7.000
858.086	3.000
858.338	-2.000
858.591	0.000
858.843	-1.000
859.095	-1.000
859.348	-3.000
859.600	1.000
859.853	-1.000
860.105	-2.000
860.358	-3.000
860.610	-1.000
860.862	2.000
861.115	4.000
861.367	-6.000
861.620	3.000
861.872	-2.000
862.124	5.000
862.377	-2.000
862.629	2.000
862.881	1.000
863.134	0.000
863.386	-5.000
863.638	-3.000
863.891	-3.000
864.143	-1.000
864.395	-3.000
864.648	0.000
864.900	-6.000
865.152	-1.000
865.404	0.000
865.657	-2.000
865.909	0.000
866.161	-2.000
866.413	1.000
866.666	1.000
866.918	-1.000
867.170	-2.000
867.422	-6.000
867.674	-4.000
867.927	-5.000
868.179	-3.000
868.431	-3.000
868.683	-4.000
868.935	3.000
869.187	-1.000
869.440	0.000
869.692	-3.000
869.944	-3.000
870.196	-3.000
870.448	-7.000
870.700	-1.000
870.952	0.000
871.204	2.000
871.457	0.000
871.709	-1.000
871.961	-1.000
872.213	-3.000
872.465	-3.000
872.717	-5.000
872.969	3.000
873.221	1.000
873.473	0.000
873.725	-1.000
873.977	-4.000
874.229	-3.000
874.481	-6.000
874.733	-3.000
874.985	1.000
875.237	-2.000
875.489	1.000
875.741	3.000
875.993	0.000
876.245	1.000
876.497	-3.000
876.749	-4.000
877.001	-1.000
877.253	-2.000
877.504	0.000
877.756	1.000
878.008	-7.000
878.260	-4.000
878.512	-4.000
878.764	-1.000
879.016	1.000
879.268	-3.000
879.519	1.000
879.771	-4.000
880.023	0.000
880.275	0.000
880.527	1.000
880.779	-1.000
881.030	-4.000
881.282	-4.000
881.534	-8.000
881.786	-5.000
882.038	-8.000
882.289	62.000
882.541	158.000
882.793	190.000
883.045	123.000
883.296	53.000
883.548	16.000
883.800	-4.000
884.052	-1.000
884.303	-9.000
884.555	-4.000
884.807	0.000
885.058	-5.000
885.310	2.000
885.562	1.000
885.813	-5.000
886.065	2.000
886.317	0.000
886.568	5.000
886.820	1.000
887.072	-4.000
887.323	-6.000
887.575	-5.000
887.826	2.000
888.078	-3.000
888.330	-2.000
888.581	2.000
888.833	1.000
889.084	2.000
889.336	0.000
889.587	0.000
889.839	-1.000
890.091	-3.000
890.342	-1.000
890.594	2.000
890.845	0.000
891.097	1.000
891.348	-3.000
891.600	-6.000
891.851	-1.000
892.103	1.000
892.354	1.000
892.606	0.000
892.857	0.000
893.108	-2.000
893.360	2.000
893.611	0.000
893.863	-4.000
894.114	0.000
894.366	1.000
894.617	0.000
894.868	-2.000
895.120	-2.000
895.371	-5.000
895.623	-4.000
895.874	-2.000
896.125	2.000
896.377	4.000
896.628	-2.000
896.879	-4.000
897.131	-2.000
897.382	0.000
897.633	-2.000
897.885	-1.000
898.136	-2.000
898.387	-2.000
898.639	-3.000
898.890	-3.000
899.141	-2.000
899.392	-2.000
899.644	1.000
899.895	-2.000
900.146	3.000
900.397	4.000
900.649	-5.000
900.900	2.000
901.151	1.000
901.402	-6.000
901.653	0.000
901.905	-2.000
902.156	-5.000
902.407	1.000
902.658	-4.000
902.909	-1.000
903.160	-2.000
903.412	0.000
903.663	-3.000
903.914	4.000
904.165	-1.000
904.416	-1.000
904.667	-1.000
904.918	-4.000
905.169	-10.000
905.421	9.000
905.672	10.000
905.923	-1.000
906.174	-7.000
906.425	-6.000
906.676	-4.000
906.927	-3.000
907.178	-3.000
907.429	-3.000
907.680	-2.000
907.931	5.000
908.182	1.000
908.433	0.000
908.684	2.000
908.935	2.000
909.186	5.000
909.437	3.000
909.688	-1.000
909.939	-4.000
910.190	-2.000
910.441	1.000
910.692	-2.000
910.943	0.000
911.194	-2.000
911.445	1.000
911.695	4.000
911.946	-2.000
912.197	-2.000
912.448	-1.000
912.699	-3.000
912.950	-1.000
913.201	-1.000
913.452	1.000
913.702	2.000
913.953	-3.000
914.204	0.000
914.455	-2.000
914.706	0.000
914.957	2.000
915.207	0.000
915.458	-5.000
915.709	-4.000
915.960	-3.000
916.210	0.000
916.461	1.000
916.712	-5.000
916.963	-6.000
917.213	11.000
917.464	16.000
917.715	6.000
917.966	-4.000
918.216	-3.000
918.467	-6.000
918.718	-4.000
918.969	-3.000
919.219	1.000
919.470	-9.000
919.721	-3.000
919.971	-1.000
920.222	4.000
920.473	1.000
920.723	-1.000
920.974	-2.000
921.224	-3.000
921.475	-6.000
921.726	0.000
921.976	-3.000
922.227	1.000
922.477	-1.000
922.728	1.000
922.979	0.000
923.229	3.000
923.480	0.000
923.730	3.000
923.981	-5.000
924.231	-1.000
924.482	2.000
924.732	-1.000
924.983	1.000
925.233	2.000
925.484	1.000
925.734	-2.000
925.985	3.000
926.235	-2.000
926.486	-1.000
926.736	-2.000
926.987	0.000
927.237	-3.000
927.488	-2.000
927.738	-5.000
927.989	-2.000
928.239	3.000
928.489	3.000
928.740	-1.000
928.990	-3.000
929.241	-2.000
929.491	-6.000
929.741	-6.000
929.992	0.000
930.242	-1.000
930.492	-1.000
930.743	-2.000
930.993	0.000
931.243	-7.000
931.494	1.000
931.744	0.000
931.994	-1.000
932.245	-4.000
932.495	-1.000
932.745	-7.000
932.996	2.000
933.246	2.000
933.496	3.000
933.746	2.000
933.997	1.000
934.247	-1.000
934.497	2.000
934.747	-1.000
934.998	1.000
935.248	1.000
935.498	1.000
935.748	-1.000
935.998	1.000
936.249	0.000
936.499	1.000
936.749	3.000
936.999	-1.000
937.249	-2.000
937.499	4.000
937.750	1.000
938.000	-6.000
938.250	0.000
938.500	0.000
938.750	0.000
939.000	-3.000
939.250	2.000
939.500	-1.000
939.750	3.000
940.000	0.000
940.251	-3.000
940.501	0.000
940.751	2.000
941.001	-2.000
941.251	-1.000
941.501	-5.000
941.751	4.000
942.001	-3.000
942.251	2.000
942.501	-1.000
942.751	2.000
943.001	0.000
943.251	-2.000
943.501	-7.000
943.751	-3.000
944.001	-2.000
944.251	-3.000
944.501	-5.000
944.751	-3.000
945.000	-1.000
945.250	0.000
945.500	-4.000
945.750	-4.000
946.000	-2.000
946.250	0.000
946.500	-4.000
946.750	3.000
947.000	-2.000
947.249	2.000
947.499	0.000
947.749	-2.000
947.999	-2.000
948.249	0.000
948.499	2.000
948.749	0.000
948.998	0.000
949.248	1.000
949.498	-4.000
949.748	-2.000
949.997	2.000
950.247	-1.000
950.497	-6.000
950.747	-2.000
950.997	-3.000
951.246	2.000
951.496	-2.000
951.746	-1.000
951.995	2.000
952.245	3.000
952.495	-2.000
952.745	-4.000
952.994	-7.000
953.244	1.000
953.494	3.000
953.743	-1.000
953.993	0.000
954.243	-1.000
954.492	-2.000
954.742	-4.000
954.992	-4.000
955.241	3.000
955.491	-3.000
955.740	1.000
955.990	0.000
956.240	-4.000
956.489	-2.000
956.739	5.000
956.988	0.000
957.238	-2.000
957.488	-7.000
957.737	-3.000
957.987	-2.000
958.236	-3.000
958.486	-3.000
958.735	-4.000
958.985	0.000
959.234	-3.000
959.484	-2.000
959.733	-4.000
959.983	2.000
960.232	-4.000
960.482	0.000
960.731	-7.000
960.981	-7.000
961.230	-2.000
961.480	-2.000
961.729	3.000
961.978	-5.000
962.228	-5.000
962.477	-1.000
962.727	-1.000
962.976	-1.000
963.226	-2.000
963.475	6.000
963.724	-4.000
963.974	-1.000
964.223	-4.000
964.472	1.000
964.722	-3.000
964.971	-4.000
965.220	1.000
965.470	0.000
965.719	-3.000
965.968	-4.000
966.218	-1.000
966.467	-2.000
966.716	-4.000
966.966	0.000
967.215	-7.000
967.464	-2.000
967.713	-6.000
967.963	-6.000
968.212	-2.000
968.461	-4.000
968.710	-3.000
968.960	-3.000
969.209	2.000
969.458	-2.000
969.707	-1.000
969.956	-4.000
970.206	-5.000
970.455	-2.000
970.704	-5.000
970.953	-1.000
971.202	2.000
971.451	0.000
971.701	-1.000
971.950	0.000
972.199	-2.000
972.448	-3.000
972.697	1.000
972.946	1.000
973.195	-6.000
973.444	2.000
973.694	-5.000
973.943	-1.000
974.192	4.000
974.441	2.000
974.690	-5.000
974.939	-1.000
975.188	0.000
975.437	2.000
975.686	-3.000
975.935	-4.000
976.184	-3.000
976.433	-2.000
976.682	-3.000
976.931	2.000
977.180	-5.000
977.429	-4.000
977.678	-8.000
977.927	-4.000
978.176	-2.000
978.425	-5.000
978.674	-2.000
978.923	1.000
979.172	-2.000
979.421	1.000
979.670	-1.000
979.918	-1.000
980.167	-3.000
980.416	-1.000
980.665	-4.000
980.914	-6.000
981.163	-5.000
981.412	-10.000
981.661	-3.000
981.909	-6.000
982.158	-10.000
982.407	-6.000
982.656	-6.000
982.905	-5.000
983.154	-4.000
983.402	-4.000
983.651	-1.000
983.900	0.000
984.149	-3.000
984.398	-4.000
984.646	-6.000
984.895	-4.000
985.144	1.000
985.393	1.000
985.641	-1.000
985.890	2.000
986.139	-4.000
986.387	-1.000
986.636	-2.000
986.885	-2.000
987.134	-5.000
987.382	-6.000
987.631	-2.000
987.880	-2.000
988.128	-4.000
988.377	-4.000
988.626	-3.000
988.874	-6.000
989.123	-7.000
989.372	-4.000
989.620	-3.000
989.869	1.000
990.117	-1.000
990.366	-1.000
990.615	-1.000
990.863	-5.000
991.112	1.000
991.360	2.000
991.609	-2.000
991.857	-1.000
992.106	-7.000
992.355	-1.000
992.603	-2.000
992.852	1.000
993.100	-2.000
993.349	-6.000
993.597	-8.000
993.846	-9.000
994.094	-6.000
994.343	-7.000
994.591	-6.000
994.840	-5.000
995.088	-4.000
995.336	-2.000
995.585	0.000
995.833	-6.000
996.082	-4.000
996.330	-3.000
996.579	3.000
996.827	-4.000
997.075	1.000
997.324	-3.000
997.572	-4.000
997.821	-7.000
998.069	0.000
998.317	-3.000
998.566	-2.000
998.814	-2.000
999.062	-3.000
999.311	-3.000
999.559	-6.000
999.807	-4.000
1000.056	-6.000
1000.304	4.000
1000.552	-3.000
1000.801	-3.000
1001.049	-2.000
1001.297	-3.000
1001.546	2.000
1001.794	-3.000
1002.042	-3.000
1002.290	-2.000
1002.539	-1.000
1002.787	-1.000
1003.035	0.000
1003.283	-2.000
1003.531	-2.000
1003.780	-7.000
1004.028	-3.000
1004.276	-3.000
1004.524	-8.000
1004.772	-3.000
1005.021	-3.000
1005.269	0.000
1005.517	-2.000
1005.765	-3.000
1006.013	-4.000
1006.261	-8.000
1006.509	-4.000
1006.758	-2.000
1007.006	-3.000
1007.254	-7.000
1007.502	-2.000
1007.750	-1.000
1007.998	-4.000
1008.246	-2.000
1008.494	-6.000
1008.742	-1.000
1008.990	-4.000
1009.238	-4.000
1009.486	0.000
1009.735	-3.000
1009.983	4.000
1010.231	1.000
1010.479	3.000
1010.727	2.000
1010.975	-3.000
1011.223	4.000
1011.471	0.000
1011.719	-4.000
1011.967	-5.000
1012.214	3.000
1012.462	-3.000
1012.710	-1.000
1012.958	1.000
1013.206	1.000
1013.454	3.000
1013.702	-3.000
1013.950	-2.000
1014.198	-1.000
1014.446	-1.000
1014.694	-4.000
1014.942	-1.000
1015.189	0.000
1015.437	1.000
1015.685	0.000
1015.933	-4.000
1016.181	-3.000
1016.429	-2.000
1016.677	-2.000
1016.924	-4.000
1017.172	-3.000
1017.420	-2.000
1017.668	-1.000
1017.916	-2.000
1018.163	-3.000
1018.411	0.000
1018.659	-1.000
1018.907	-6.000
1019.155	-2.000
1019.402	-1.000
1019.650	-5.000
1019.898	-4.000
1020.145	-2.000
1020.393	-3.000
1020.641	-2.000
1020.889	0.000
1021.136	-3.000
1021.384	0.000
1021.632	1.000
1021.879	-3.000
1022.127	-3.000
1022.375	-3.000
1022.622	0.000
1022.870	-6.000
1023.118	-2.000
1023.365	0.000
1023.613	-4.000
1023.861	-1.000
1024.108	-6.000
1024.356	-2.000
1024.603	-5.000
1024.851	-2.000
1025.099	-3.000
1025.346	-3.000
1025.594	0.000
1025.841	5.000
1026.089	-3.000
1026.336	-4.000
1026.584	-1.000
1026.832	-3.000
1027.079	-2.000
1027.327	-1.000
1027.574	-1.000
1027.822	-2.000
1028.069	-2.000
1028.317	-3.000
1028.564	-1.000
1028.812	-5.000
1029.059	-7.000
1029.306	-3.000
1029.554	3.000
1029.801	1.000
1030.049	0.000
1030.296	2.000
1030.544	2.000
1030.791	1.000
1031.039	0.000
1031.286	-4.000
1031.533	-2.000
1031.781	-2.000
1032.028	-1.000
1032.276	-7.000
1032.523	-3.000
1032.770	-5.000
1033.018	-4.000
1033.265	-2.000
1033.512	2.000
1033.760	1.000
1034.007	0.000
1034.254	3.000
1034.502	0.000
1034.749	-1.000
1034.996	0.000
1035.243	-1.000
1035.491	-2.000
1035.738	2.000
1035.985	-1.000
1036.233	1.000
1036.480	-2.000
1036.727	-5.000
1036.974	-1.000
1037.222	-3.000
1037.469	-3.000
1037.716	1.000
1037.963	-1.000
1038.210	-2.000
1038.458	-3.000
1038.705	0.000
1038.952	1.000
1039.199	-3.000
1039.446	-3.000
1039.693	2.000
1039.941	-1.000
1040.188	-1.000
1040.435	-5.000
1040.682	2.000
1040.929	4.000
1041.176	-1.000
1041.423	1.000
1041.671	0.000
1041.918	-3.000
1042.165	1.000
1042.412	1.000
1042.659	1.000
1042.906	2.000
1043.153	0.000
1043.400	-3.000
1043.647	-4.000
1043.894	-4.000
1044.141	-1.000
1044.388	-5.000
1044.635	-4.000
1044.882	-1.000
1045.129	-3.000
1045.376	0.000
1045.623	-5.000
1045.870	0.000
1046.117	1.000
1046.364	-1.000
1046.611	0.000
1046.858	-7.000
1047.105	-2.000
1047.352	-4.000
1047.599	1.000
1047.846	-2.000
1048.093	-2.000
1048.340	-3.000
1048.587	-2.000
1048.833	-4.000
1049.080	-7.000
1049.327	-3.000
1049.574	0.000
1049.821	-1.000
1050.068	1.000
1050.315	-3.000
1050.561	0.000
1050.808	-4.000
1051.055	-5.000
1051.302	-1.000
1051.549	0.000
1051.796	-3.000
1052.042	-1.000
1052.289	1.000
1052.536	0.000
1052.783	1.000
1053.030	3.000
1053.276	1.000
1053.523	-2.000
1053.770	0.000
1054.017	3.000
1054.263	1.000
1054.510	0.000
1054.757	-3.000
1055.003	-1.000
1055.250	-4.000
1055.497	-2.000
1055.744	1.000
1055.990	-4.000
1056.237	-3.000
1056.484	0.000
1056.730	-2.000
1056.977	-2.000
1057.224	2.000
1057.470	-4.000
1057.717	1.000
1057.963	-2.000
1058.210	1.000
1058.457	5.000
1058.703	-3.000
1058.950	3.000
1059.197	3.000
1059.443	-2.000
1059.690	0.000
1059.936	2.000
1060.183	1.000
1060.429	-3.000
1060.676	-3.000
1060.922	-1.000
1061.169	-3.000
1061.416	-2.000
1061.662	4.000
1061.909	1.000
1062.155	1.000
1062.402	3.000
1062.648	1.000
1062.895	3.000
1063.141	0.000
1063.387	3.000
1063.634	2.000
1063.880	-1.000
1064.127	0.000
1064.373	-4.000
1064.620	-6.000
1064.866	-1.000
1065.113	1.000
1065.359	0.000
1065.605	0.000
1065.852	3.000
1066.098	1.000
1066.345	-3.000
1066.591	1.000
1066.837	0.000
1067.084	-4.000
1067.330	4.000
1067.576	-5.000
1067.823	4.000
1068.069	-2.000
1068.315	0.000
1068.562	2.000
1068.808	2.000
1069.054	1.000
1069.301	0.000
1069.547	1.000
1069.793	4.000
1070.040	-1.000
1070.286	4.000
1070.532	1.000
1070.778	1.000
1071.025	2.000
1071.271	2.000
1071.517	-3.000
1071.763	0.000
1072.009	-3.000
1072.256	0.000
1072.502	-1.000
1072.748	-3.000
1072.994	2.000
1073.240	3.000
1073.487	1.000
1073.733	1.000
1073.979	3.000
1074.225	2.000
1074.471	1.000
1074.717	2.000
1074.964	2.000
1075.210	0.000
1075.456	-1.000
1075.702	-4.000
1075.948	-2.000
1076.194	-2.000
1076.440	3.000
1076.686	0.000
1076.932	0.000
1077.178	-2.000
1077.425	-1.000
1077.671	0.000
1077.917	-3.000
1078.163	-2.000
1078.409	-3.000
1078.655	0.000
1078.901	1.000
1079.147	2.000
1079.393	0.000
1079.639	0.000
1079.885	3.000
1080.131	-2.000
1080.377	-2.000
1080.623	2.000
1080.869	-2.000
1081.115	2.000
1081.361	-1.000
1081.606	1.000
1081.852	1.000
1082.098	-1.000
1082.344	-1.000
1082.590	0.000
1082.836	2.000
1083.082	0.000
1083.328	3.000
1083.574	0.000
1083.820	-2.000
1084.065	-6.000
1084.311	0.000
1084.557	-2.000
1084.803	-1.000
1085.049	0.000
1085.295	0.000
1085.541	1.000
1085.786	1.000
1086.032	-2.000
1086.278	-2.000
1086.524	1.000
1086.770	0.000
1087.015	3.000
1087.261	2.000
1087.507	-1.000
1087.753	-3.000
1087.998	-3.000
1088.244	-1.000
1088.490	-1.000
1088.736	-2.000
1088.981	0.000
1089.227	4.000
1089.473	-2.000
1089.719	-4.000
1089.964	1.000
1090.210	-2.000
1090.456	-1.000
1090.701	5.000
1090.947	2.000
1091.193	-4.000
1091.438	-2.000
1091.684	-1.000
1091.930	-6.000
1092.175	4.000
1092.421	-4.000
1092.666	-4.000
1092.912	1.000
1093.158	2.000
1093.403	-3.000
1093.649	3.000
1093.894	1.000
1094.140	-3.000
1094.386	0.000
1094.631	1.000
1094.877	-2.000
1095.122	-2.000
1095.368	1.000
1095.613	-4.000
1095.859	2.000
1096.104	4.000
1096.350	-2.000
1096.595	-1.000
1096.841	-6.000
1097.086	0.000
1097.332	-1.000
1097.577	2.000
1097.823	-2.000
1098.068	-1.000
1098.314	-2.000
1098.559	-3.000
1098.805	-3.000
1099.050	-6.000
1099.295	2.000
1099.541	0.000
1099.786	0.000
+++++End Spectral Data+++++
