Spectrometer Data
EN
------------------------------
Saving Time:Thu, Jan 22, 2026 10:54:50
Device Name:Aurora 4000
Version Info:V9_84
Serial Number:220120190816098402001100
Integral Time(æs):4000
Avg Count:10
Smoothness:0
Data Type:(0 1)Wavelength-Delete Dark
X-Axis Unit:nm
Y-Axis Unit:counts
Pixel Count:3482
Reserve0:250
Other Description:
+++++Begin Spectral Data+++++
200.149	-2.200
200.421	0.700
200.693	-0.500
200.966	3.300
201.238	2.600
201.510	0.300
201.782	-2.000
202.054	-0.400
202.326	2.100
202.598	1.400
202.870	5.400
203.142	-0.500
203.414	0.500
203.686	2.600
203.958	0.300
204.230	3.100
204.502	1.300
204.774	3.300
205.046	1.200
205.318	-0.700
205.590	0.800
205.861	2.300
206.133	3.400
206.405	0.200
206.677	-0.100
206.949	1.700
207.221	-0.500
207.493	0.400
207.765	2.900
208.037	-0.900
208.308	2.200
208.580	1.500
208.852	1.300
209.124	2.200
209.396	1.200
209.668	2.900
209.939	3.000
210.211	0.100
210.483	2.200
210.755	2.100
211.027	3.000
211.298	1.700
211.570	3.300
211.842	2.700
212.114	-0.300
212.385	1.700
212.657	4.400
212.929	4.200
213.200	2.000
213.472	2.300
213.744	3.000
214.016	4.000
214.287	3.000
214.559	2.200
214.831	0.600
215.102	-3.300
215.374	2.600
215.645	3.100
215.917	3.800
216.189	-1.000
216.460	3.000
216.732	0.500
217.004	4.400
217.275	1.700
217.547	2.900
217.818	1.900
218.090	3.300
218.361	2.200
218.633	0.400
218.904	1.700
219.176	2.500
219.448	2.800
219.719	2.400
219.991	1.900
220.262	1.000
220.534	3.600
220.805	2.400
221.076	1.600
221.348	1.900
221.619	1.100
221.891	2.500
222.162	2.500
222.434	1.200
222.705	1.800
222.977	3.800
223.248	2.200
223.519	-0.200
223.791	4.900
224.062	3.900
224.333	2.700
224.605	0.500
224.876	3.400
225.148	6.000
225.419	2.900
225.690	4.500
225.962	2.200
226.233	3.900
226.504	0.800
226.775	4.400
227.047	1.400
227.318	1.400
227.589	2.700
227.861	1.300
228.132	3.700
228.403	3.500
228.674	4.000
228.946	-1.700
229.217	3.300
229.488	-0.500
229.759	3.400
230.030	3.700
230.302	2.600
230.573	1.100
230.844	1.000
231.115	0.100
231.386	-0.400
231.657	4.000
231.929	4.100
232.200	2.600
232.471	0.300
232.742	3.700
233.013	1.500
233.284	3.900
233.555	2.700
233.826	2.200
234.097	-1.300
234.369	-1.300
234.640	0.700
234.911	1.200
235.182	4.600
235.453	1.200
235.724	2.400
235.995	-2.300
236.266	1.200
236.537	2.400
236.808	0.900
237.079	1.200
237.350	0.200
237.621	3.000
237.892	4.000
238.163	1.200
238.434	-0.800
238.705	-0.500
238.975	2.600
239.246	1.000
239.517	1.200
239.788	2.200
240.059	5.200
240.330	5.100
240.601	1.400
240.872	0.200
241.143	1.000
241.413	-0.700
241.684	0.600
241.955	3.300
242.226	-0.500
242.497	0.700
242.768	0.400
243.038	1.500
243.309	0.900
243.580	4.100
243.851	1.000
244.122	2.700
244.392	0.500
244.663	0.400
244.934	1.600
245.205	1.500
245.475	1.700
245.746	3.100
246.017	1.300
246.288	0.400
246.558	2.500
246.829	3.500
247.100	2.000
247.370	1.600
247.641	0.800
247.912	1.900
248.182	2.000
248.453	4.400
248.724	1.000
248.994	1.800
249.265	2.200
249.535	2.800
249.806	0.300
250.077	3.700
250.347	0.700
250.618	0.600
250.888	3.100
251.159	3.700
251.430	3.200
251.700	2.100
251.971	-0.400
252.241	1.100
252.512	-1.900
252.782	-1.700
253.053	-0.700
253.323	0.600
253.594	-0.100
253.864	0.300
254.135	2.600
254.405	-1.900
254.676	0.400
254.946	2.700
255.216	-0.500
255.487	1.400
255.757	-0.100
256.028	3.400
256.298	1.300
256.569	0.200
256.839	-0.900
257.109	1.600
257.380	2.700
257.650	-0.300
257.920	2.000
258.191	1.900
258.461	-0.100
258.731	2.500
259.002	1.900
259.272	0.700
259.542	-1.100
259.813	1.200
260.083	2.700
260.353	3.000
260.624	2.900
260.894	1.300
261.164	2.800
261.434	3.500
261.705	1.500
261.975	3.800
262.245	0.000
262.515	1.200
262.786	2.900
263.056	3.500
263.326	-0.100
263.596	-0.500
263.866	0.800
264.137	-1.000
264.407	1.400
264.677	-2.400
264.947	2.000
265.217	3.500
265.487	2.500
265.757	0.000
266.027	0.300
266.298	2.700
266.568	-1.700
266.838	-0.200
267.108	-1.200
267.378	-0.100
267.648	0.400
267.918	1.200
268.188	2.100
268.458	3.500
268.728	0.100
268.998	0.600
269.268	1.000
269.538	0.900
269.808	-1.600
270.078	0.200
270.348	2.400
270.618	0.700
270.888	2.700
271.158	-1.200
271.428	-0.100
271.698	-0.700
271.968	0.100
272.238	-1.700
272.508	-0.500
272.778	0.600
273.048	-0.100
273.318	-1.800
273.587	-0.400
273.857	0.500
274.127	-0.100
274.397	-0.900
274.667	2.400
274.937	0.200
275.207	0.900
275.476	0.200
275.746	1.600
276.016	-0.900
276.286	2.600
276.556	-2.200
276.826	1.000
277.095	3.200
277.365	0.400
277.635	0.700
277.905	4.400
278.174	0.500
278.444	0.200
278.714	2.400
278.984	-0.400
279.253	-2.000
279.523	-0.200
279.793	-0.800
280.062	1.300
280.332	-0.400
280.602	-0.900
280.871	0.400
281.141	-2.800
281.411	0.200
281.680	-1.600
281.950	1.100
282.220	1.000
282.489	-1.400
282.759	-0.400
283.029	0.300
283.298	2.500
283.568	-1.200
283.837	-4.100
284.107	-2.800
284.376	1.400
284.646	-0.900
284.916	0.900
285.185	0.100
285.455	0.000
285.724	-5.600
285.994	-0.900
286.263	-0.100
286.533	1.500
286.802	3.600
287.072	-0.600
287.341	4.300
287.611	0.000
287.880	-1.200
288.149	0.000
288.419	-0.100
288.688	-0.700
288.958	0.600
289.227	0.500
289.497	1.200
289.766	-0.400
290.035	-3.100
290.305	-0.200
290.574	-1.800
290.844	-4.400
291.113	-0.400
291.382	1.100
291.652	-1.100
291.921	2.400
292.190	-0.600
292.460	-0.100
292.729	-2.700
292.998	2.400
293.268	0.500
293.537	-0.100
293.806	-0.100
294.075	1.400
294.345	0.500
294.614	-3.200
294.883	-1.400
295.152	-2.100
295.422	0.400
295.691	2.400
295.960	-2.800
296.229	-1.000
296.498	1.700
296.768	1.300
297.037	2.300
297.306	4.700
297.575	-1.200
297.844	-2.900
298.114	-2.200
298.383	-1.900
298.652	-0.100
298.921	-3.500
299.190	-0.300
299.459	-0.300
299.728	-0.300
299.997	1.500
300.266	0.600
300.536	-1.400
300.805	0.300
301.074	-0.500
301.343	-1.400
301.612	0.500
301.881	-0.200
302.150	0.300
302.419	-2.400
302.688	1.100
302.957	-0.500
303.226	-1.000
303.495	-0.200
303.764	-1.500
304.033	-0.600
304.302	-2.500
304.571	-1.200
304.840	-3.900
305.109	1.000
305.378	1.000
305.646	1.900
305.915	-0.800
306.184	1.200
306.453	-2.700
306.722	-0.500
306.991	0.400
307.260	-0.100
307.529	-0.500
307.798	-2.600
308.066	-2.800
308.335	-1.000
308.604	2.200
308.873	-2.500
309.142	0.500
309.411	-0.900
309.679	-1.600
309.948	0.100
310.217	0.600
310.486	-1.200
310.755	0.000
311.023	-0.500
311.292	0.400
311.561	-2.800
311.830	-2.800
312.098	-0.400
312.367	-2.200
312.636	0.400
312.904	0.300
313.173	2.000
313.442	0.000
313.711	-0.500
313.979	-1.200
314.248	-0.500
314.517	-1.200
314.785	0.800
315.054	-3.000
315.322	0.000
315.591	1.200
315.860	-3.500
316.128	-2.100
316.397	1.600
316.665	1.600
316.934	1.700
317.203	-2.100
317.471	-2.800
317.740	0.900
318.008	0.100
318.277	-0.400
318.545	1.300
318.814	2.200
319.082	-2.000
319.351	-4.000
319.619	-2.700
319.888	0.400
320.156	-0.600
320.425	-1.700
320.693	-2.400
320.962	-2.500
321.230	-2.200
321.499	-0.600
321.767	0.000
322.036	-2.800
322.304	2.800
322.573	-3.000
322.841	0.200
323.109	-2.900
323.378	-2.600
323.646	0.600
323.914	-0.500
324.183	0.300
324.451	-1.200
324.720	-0.800
324.988	1.700
325.256	-3.800
325.525	-1.000
325.793	2.000
326.061	-2.100
326.330	-1.000
326.598	-2.000
326.866	-2.200
327.134	-2.000
327.403	1.000
327.671	-1.600
327.939	1.300
328.207	1.100
328.476	-0.600
328.744	-3.100
329.012	2.100
329.280	-0.500
329.549	-0.700
329.817	2.000
330.085	2.100
330.353	1.600
330.621	-0.600
330.889	0.300
331.158	-0.800
331.426	1.000
331.694	0.400
331.962	-2.100
332.230	-1.300
332.498	3.700
332.766	-0.900
333.035	1.600
333.303	-3.000
333.571	0.600
333.839	-0.100
334.107	0.800
334.375	0.700
334.643	-1.900
334.911	-1.400
335.179	0.600
335.447	1.200
335.715	-0.400
335.983	0.300
336.251	3.800
336.519	1.500
336.787	0.800
337.055	-2.500
337.323	-0.500
337.591	2.000
337.859	0.600
338.127	1.000
338.395	0.500
338.663	-2.800
338.931	4.200
339.199	-0.300
339.467	1.400
339.734	1.000
340.002	-0.600
340.270	-0.800
340.538	-0.400
340.806	1.600
341.074	0.200
341.342	-1.400
341.610	0.300
341.877	-1.800
342.145	0.600
342.413	0.500
342.681	-1.700
342.949	1.200
343.216	2.200
343.484	-1.600
343.752	0.400
344.020	1.200
344.288	-1.100
344.555	0.500
344.823	-1.000
345.091	-4.700
345.359	-0.400
345.626	-0.400
345.894	1.300
346.162	-0.900
346.429	0.900
346.697	1.200
346.965	1.800
347.232	-0.900
347.500	-0.200
347.768	-2.900
348.035	0.300
348.303	2.400
348.571	0.200
348.838	0.200
349.106	-2.800
349.374	-1.200
349.641	0.900
349.909	0.700
350.176	-3.400
350.444	-2.500
350.712	-0.900
350.979	1.000
351.247	1.200
351.514	-2.500
351.782	-3.100
352.049	1.300
352.317	0.400
352.584	-1.700
352.852	0.900
353.119	-1.200
353.387	2.200
353.654	1.000
353.922	1.500
354.189	1.500
354.457	1.500
354.724	-0.800
354.992	1.300
355.259	0.700
355.526	0.200
355.794	-1.200
356.061	0.700
356.329	2.400
356.596	0.100
356.863	0.300
357.131	-0.100
357.398	0.700
357.666	1.400
357.933	1.000
358.200	-1.600
358.468	1.300
358.735	0.400
359.002	1.700
359.270	2.100
359.537	0.700
359.804	2.000
360.071	-0.100
360.339	1.400
360.606	-0.100
360.873	1.300
361.141	1.000
361.408	1.700
361.675	-0.700
361.942	-0.500
362.210	0.900
362.477	-0.100
362.744	-0.700
363.011	-0.300
363.278	0.800
363.546	-0.800
363.813	0.900
364.080	0.400
364.347	1.200
364.614	1.300
364.881	-1.800
365.148	2.000
365.416	-3.300
365.683	0.100
365.950	-0.700
366.217	2.800
366.484	0.400
366.751	-3.400
367.018	-1.200
367.285	-0.600
367.552	3.400
367.819	-1.300
368.086	1.700
368.354	3.200
368.621	1.300
368.888	1.500
369.155	2.300
369.422	-0.300
369.689	-2.600
369.956	1.300
370.223	-0.100
370.490	2.200
370.757	-0.100
371.024	3.700
371.290	4.700
371.557	2.100
371.824	-0.500
372.091	-0.700
372.358	0.500
372.625	2.000
372.892	1.300
373.159	0.600
373.426	2.800
373.693	1.000
373.960	3.000
374.226	3.300
374.493	-2.000
374.760	4.100
375.027	1.400
375.294	3.400
375.561	1.900
375.827	2.600
376.094	1.200
376.361	1.100
376.628	1.600
376.895	0.400
377.161	3.600
377.428	2.100
377.695	2.100
377.962	-3.500
378.228	3.100
378.495	-0.800
378.762	-0.800
379.029	1.400
379.295	1.200
379.562	-1.200
379.829	3.600
380.095	1.900
380.362	-0.400
380.629	0.500
380.896	2.900
381.162	2.200
381.429	-0.700
381.695	0.600
381.962	-0.600
382.229	0.000
382.495	2.400
382.762	-0.500
383.029	0.800
383.295	3.100
383.562	-0.600
383.828	1.700
384.095	0.600
384.361	2.200
384.628	1.500
384.895	3.800
385.161	2.600
385.428	1.500
385.694	2.400
385.961	3.900
386.227	-0.900
386.494	2.400
386.760	0.100
387.027	0.800
387.293	0.000
387.560	4.100
387.826	1.600
388.092	2.500
388.359	2.900
388.625	-0.400
388.892	1.500
389.158	-0.700
389.425	3.900
389.691	2.400
389.957	0.400
390.224	1.000
390.490	-0.200
390.757	0.600
391.023	-0.100
391.289	-0.800
391.556	2.900
391.822	-0.500
392.088	0.500
392.355	3.500
392.621	1.800
392.887	2.100
393.154	2.200
393.420	-1.900
393.686	-0.200
393.952	0.100
394.219	2.100
394.485	1.800
394.751	-0.400
395.017	4.400
395.284	1.300
395.550	2.000
395.816	3.200
396.082	0.800
396.349	2.900
396.615	2.000
396.881	1.300
397.147	3.500
397.413	-0.100
397.679	3.700
397.946	1.500
398.212	-2.400
398.478	2.700
398.744	0.900
399.010	3.000
399.276	2.500
399.542	-0.100
399.808	1.500
400.075	0.300
400.341	1.300
400.607	0.300
400.873	2.600
401.139	2.800
401.405	2.400
401.671	1.400
401.937	2.400
402.203	0.200
402.469	3.600
402.735	2.000
403.001	3.900
403.267	3.000
403.533	2.400
403.799	3.400
404.065	2.600
404.331	3.900
404.597	3.200
404.863	2.400
405.129	2.500
405.395	1.900
405.661	-0.800
405.927	1.100
406.192	0.800
406.458	3.400
406.724	3.800
406.990	1.300
407.256	-0.900
407.522	0.100
407.788	1.500
408.054	2.400
408.319	0.700
408.585	1.000
408.851	1.600
409.117	-1.700
409.383	1.000
409.649	1.300
409.914	1.500
410.180	0.600
410.446	2.100
410.712	3.800
410.977	-0.800
411.243	0.900
411.509	5.900
411.775	4.700
412.040	2.400
412.306	4.800
412.572	2.800
412.838	-0.600
413.103	1.800
413.369	2.900
413.635	2.400
413.900	1.700
414.166	1.600
414.432	-0.700
414.697	5.400
414.963	2.200
415.229	-0.900
415.494	-0.700
415.760	1.300
416.025	0.500
416.291	1.500
416.557	1.600
416.822	-1.200
417.088	2.600
417.353	0.400
417.619	-1.600
417.884	3.600
418.150	0.500
418.416	2.200
418.681	0.800
418.947	-0.800
419.212	0.900
419.478	0.400
419.743	2.500
420.009	1.500
420.274	2.800
420.540	1.100
420.805	1.700
421.071	2.700
421.336	0.100
421.601	3.200
421.867	-0.400
422.132	0.400
422.398	2.400
422.663	0.900
422.929	0.100
423.194	-0.500
423.459	4.800
423.725	-0.100
423.990	2.700
424.256	-0.900
424.521	1.900
424.786	3.100
425.052	3.100
425.317	-1.000
425.582	-0.200
425.848	0.000
426.113	2.300
426.378	-3.900
426.643	0.100
426.909	2.100
427.174	-2.300
427.439	1.100
427.705	1.700
427.970	0.600
428.235	2.500
428.500	-3.800
428.766	-1.300
429.031	0.900
429.296	1.500
429.561	-0.500
429.826	2.500
430.092	1.400
430.357	0.400
430.622	0.400
430.887	-1.000
431.152	-0.300
431.417	2.700
431.683	0.400
431.948	1.700
432.213	0.400
432.478	-1.700
432.743	-1.100
433.008	2.500
433.273	0.600
433.538	2.600
433.803	0.100
434.069	2.800
434.334	-0.700
434.599	2.600
434.864	1.700
435.129	1.000
435.394	-0.400
435.659	0.400
435.924	1.700
436.189	1.000
436.454	3.000
436.719	0.200
436.984	2.700
437.249	0.400
437.514	-2.300
437.779	1.100
438.044	-1.200
438.309	2.200
438.574	2.700
438.838	-2.300
439.103	-0.800
439.368	0.600
439.633	0.400
439.898	-0.100
440.163	0.000
440.428	1.400
440.693	1.900
440.958	3.000
441.222	-0.100
441.487	-0.500
441.752	3.100
442.017	-2.500
442.282	2.000
442.547	3.700
442.811	4.100
443.076	2.000
443.341	-2.300
443.606	0.800
443.871	-2.400
444.135	0.600
444.400	0.000
444.665	-0.500
444.930	2.900
445.194	-0.400
445.459	2.900
445.724	-1.100
445.989	-2.500
446.253	-2.400
446.518	3.200
446.783	-2.600
447.047	1.400
447.312	0.900
447.577	-1.500
447.841	2.200
448.106	1.300
448.371	1.700
448.635	2.300
448.900	-0.600
449.165	-3.600
449.429	-1.300
449.694	2.300
449.958	-2.500
450.223	2.300
450.488	1.800
450.752	4.100
451.017	0.400
451.281	-2.300
451.546	1.100
451.810	1.400
452.075	2.300
452.339	4.900
452.604	-0.900
452.868	1.400
453.133	1.700
453.397	-2.600
453.662	0.100
453.926	0.000
454.191	2.000
454.455	0.500
454.720	-0.100
454.984	-1.900
455.249	-0.400
455.513	-1.500
455.778	2.800
456.042	-0.100
456.306	1.200
456.571	2.800
456.835	2.700
457.100	0.700
457.364	0.000
457.628	-0.400
457.893	0.900
458.157	0.600
458.421	1.300
458.686	-1.900
458.950	-2.700
459.214	-3.500
459.479	0.900
459.743	-1.000
460.007	-1.100
460.272	1.900
460.536	2.800
460.800	-0.700
461.064	4.200
461.329	0.200
461.593	0.300
461.857	3.100
462.121	-1.400
462.386	0.500
462.650	1.400
462.914	-2.000
463.178	0.400
463.442	2.500
463.707	1.300
463.971	0.900
464.235	-2.600
464.499	1.900
464.763	2.100
465.027	1.300
465.292	2.800
465.556	2.900
465.820	-0.300
466.084	2.100
466.348	2.500
466.612	2.500
466.876	-3.800
467.140	-0.700
467.404	0.400
467.668	-0.200
467.933	-0.800
468.197	1.200
468.461	0.000
468.725	-2.700
468.989	0.400
469.253	-1.200
469.517	2.800
469.781	2.200
470.045	-0.700
470.309	0.800
470.573	-2.200
470.837	1.100
471.101	0.100
471.365	-1.500
471.629	-2.100
471.892	-0.900
472.156	1.400
472.420	-1.700
472.684	0.800
472.948	-1.700
473.212	-0.700
473.476	1.200
473.740	2.600
474.004	1.800
474.268	0.500
474.531	-2.100
474.795	0.600
475.059	1.300
475.323	2.200
475.587	-2.000
475.851	2.000
476.114	-0.300
476.378	0.400
476.642	0.000
476.906	1.900
477.170	-0.300
477.433	2.600
477.697	-0.800
477.961	0.700
478.225	-3.600
478.488	0.700
478.752	0.800
479.016	0.000
479.280	2.800
479.543	-1.100
479.807	-0.700
480.071	-0.700
480.334	1.600
480.598	0.700
480.862	1.500
481.125	0.100
481.389	-1.100
481.653	-2.500
481.916	1.100
482.180	1.300
482.444	1.000
482.707	-0.100
482.971	0.800
483.234	1.300
483.498	1.100
483.762	2.100
484.025	-2.900
484.289	-0.200
484.552	0.500
484.816	-1.400
485.079	-4.000
485.343	-4.000
485.607	-2.800
485.870	51.100
486.134	112.100
486.397	81.000
486.661	19.800
486.924	-4.800
487.188	3.600
487.451	3.500
487.715	-1.300
487.978	0.600
488.241	2.200
488.505	0.300
488.768	1.200
489.032	-0.500
489.295	-1.700
489.559	-0.800
489.822	-1.600
490.085	0.100
490.349	-0.200
490.612	2.000
490.876	-3.300
491.139	-0.400
491.402	1.700
491.666	0.800
491.929	1.800
492.192	-0.800
492.456	-2.300
492.719	2.500
492.982	1.200
493.246	-0.200
493.509	0.200
493.772	-0.400
494.035	2.200
494.299	1.400
494.562	2.700
494.825	3.100
495.088	0.500
495.352	2.600
495.615	2.800
495.878	0.800
496.141	-0.100
496.405	1.500
496.668	2.800
496.931	2.800
497.194	2.700
497.457	3.100
497.721	0.300
497.984	1.900
498.247	-1.800
498.510	0.600
498.773	0.100
499.036	-0.500
499.299	0.100
499.562	-0.100
499.826	2.500
500.089	0.100
500.352	0.700
500.615	1.500
500.878	-0.600
501.141	-1.600
501.404	1.200
501.667	1.800
501.930	2.300
502.193	1.600
502.456	0.500
502.719	3.300
502.982	-0.900
503.245	0.900
503.508	1.300
503.771	-1.800
504.034	2.700
504.297	-2.000
504.560	-1.300
504.823	-2.400
505.086	-0.600
505.349	1.600
505.612	1.100
505.875	2.800
506.138	3.600
506.401	2.400
506.664	-0.500
506.927	0.800
507.189	1.800
507.452	3.100
507.715	-1.000
507.978	0.100
508.241	3.800
508.504	4.400
508.767	0.200
509.029	-0.600
509.292	-1.000
509.555	0.800
509.818	-0.100
510.081	0.500
510.343	-3.400
510.606	-0.500
510.869	2.100
511.132	0.100
511.395	-0.900
511.657	0.900
511.920	-1.500
512.183	-0.500
512.446	0.800
512.708	-2.100
512.971	-3.100
513.234	4.100
513.496	1.700
513.759	1.500
514.022	2.800
514.284	2.200
514.547	1.900
514.810	0.400
515.072	1.600
515.335	-1.100
515.598	3.200
515.860	5.000
516.123	0.300
516.386	1.000
516.648	0.800
516.911	-1.900
517.173	1.000
517.436	-1.400
517.698	2.100
517.961	-1.600
518.224	3.600
518.486	4.000
518.749	0.900
519.011	-1.300
519.274	0.500
519.536	0.900
519.799	-0.400
520.061	2.700
520.324	0.700
520.586	0.400
520.849	1.200
521.111	3.300
521.374	0.400
521.636	-1.100
521.899	2.400
522.161	-1.400
522.423	2.800
522.686	2.400
522.948	3.600
523.211	1.500
523.473	0.200
523.736	1.600
523.998	1.200
524.260	3.100
524.523	1.300
524.785	-0.200
525.047	2.500
525.310	3.600
525.572	0.200
525.834	-0.400
526.097	0.300
526.359	1.900
526.621	0.400
526.884	1.900
527.146	-0.600
527.408	-1.300
527.670	1.100
527.933	4.900
528.195	1.200
528.457	5.000
528.719	1.200
528.982	-1.800
529.244	1.800
529.506	2.300
529.768	1.600
530.031	2.300
530.293	4.500
530.555	1.700
530.817	0.200
531.079	2.500
531.342	1.900
531.604	2.000
531.866	-1.300
532.128	1.700
532.390	1.400
532.652	-0.200
532.914	3.100
533.176	-0.500
533.439	3.200
533.701	1.200
533.963	2.600
534.225	1.100
534.487	-0.200
534.749	-0.200
535.011	-1.200
535.273	1.700
535.535	-2.800
535.797	1.600
536.059	0.700
536.321	2.700
536.583	5.800
536.845	0.500
537.107	2.200
537.369	-3.500
537.631	-1.600
537.893	0.700
538.155	-2.900
538.417	0.400
538.679	-0.600
538.941	0.900
539.203	1.900
539.465	1.600
539.727	1.500
539.989	0.700
540.251	0.800
540.512	1.600
540.774	1.400
541.036	-1.500
541.298	4.000
541.560	1.200
541.822	0.900
542.084	2.600
542.345	2.400
542.607	2.800
542.869	1.800
543.131	3.500
543.393	4.100
543.655	0.300
543.916	1.200
544.178	1.400
544.440	-3.900
544.702	2.700
544.963	2.000
545.225	2.100
545.487	0.200
545.749	-1.300
546.010	2.500
546.272	2.900
546.534	0.500
546.795	1.700
547.057	2.900
547.319	-1.300
547.581	0.600
547.842	1.200
548.104	3.000
548.366	-0.400
548.627	0.500
548.889	1.900
549.150	1.000
549.412	3.800
549.674	0.200
549.935	3.400
550.197	3.300
550.459	2.100
550.720	1.200
550.982	4.800
551.243	0.800
551.505	3.600
551.766	3.100
552.028	-0.800
552.289	2.800
552.551	-1.200
552.813	3.900
553.074	2.800
553.336	-1.200
553.597	1.500
553.859	-1.000
554.120	-0.200
554.382	3.900
554.643	0.600
554.904	1.600
555.166	0.900
555.427	1.000
555.689	1.800
555.950	1.000
556.212	1.200
556.473	-1.000
556.735	2.000
556.996	1.800
557.257	0.600
557.519	0.500
557.780	0.700
558.041	1.800
558.303	-1.300
558.564	0.000
558.826	-1.300
559.087	1.700
559.348	-0.800
559.609	1.700
559.871	1.200
560.132	1.800
560.393	1.100
560.655	-1.400
560.916	0.400
561.177	3.900
561.439	2.600
561.700	-1.900
561.961	1.900
562.222	2.000
562.484	-0.800
562.745	0.900
563.006	3.000
563.267	2.800
563.528	-0.600
563.790	3.600
564.051	2.600
564.312	2.700
564.573	2.800
564.834	-1.000
565.095	0.900
565.357	1.500
565.618	3.300
565.879	0.500
566.140	0.000
566.401	3.900
566.662	-1.100
566.923	3.200
567.184	5.400
567.446	0.900
567.707	-0.800
567.968	2.600
568.229	0.800
568.490	-1.800
568.751	0.800
569.012	1.500
569.273	2.600
569.534	1.100
569.795	-0.100
570.056	2.200
570.317	-2.900
570.578	-2.300
570.839	1.900
571.100	2.700
571.361	0.200
571.622	1.300
571.883	0.000
572.144	1.300
572.405	1.100
572.666	0.800
572.927	1.800
573.188	-0.300
573.449	2.600
573.709	0.200
573.970	3.700
574.231	-0.800
574.492	-0.800
574.753	-2.100
575.014	4.300
575.275	-1.800
575.536	2.700
575.796	-0.200
576.057	2.400
576.318	-0.200
576.579	1.100
576.840	2.300
577.100	2.100
577.361	0.800
577.622	2.700
577.883	0.300
578.144	0.400
578.404	1.900
578.665	-0.500
578.926	1.700
579.187	2.100
579.447	0.600
579.708	-0.100
579.969	0.200
580.229	2.600
580.490	0.300
580.751	-0.300
581.012	2.000
581.272	1.700
581.533	2.500
581.794	1.100
582.054	0.800
582.315	1.100
582.576	0.900
582.836	1.800
583.097	-1.500
583.357	-2.400
583.618	1.100
583.879	-1.800
584.139	2.600
584.400	-0.700
584.660	1.500
584.921	2.400
585.181	-0.200
585.442	1.100
585.703	4.200
585.963	4.000
586.224	0.700
586.484	0.400
586.745	2.200
587.005	0.200
587.266	-1.100
587.526	2.300
587.787	0.600
588.047	0.400
588.308	0.700
588.568	-2.900
588.829	1.100
589.089	2.300
589.349	0.800
589.610	2.600
589.870	-0.500
590.131	0.600
590.391	-1.100
590.651	2.900
590.912	-1.100
591.172	0.000
591.433	2.500
591.693	0.900
591.953	-1.500
592.214	0.200
592.474	2.200
592.734	2.500
592.995	-0.200
593.255	2.100
593.515	-1.400
593.776	-0.500
594.036	-1.100
594.296	0.100
594.557	1.200
594.817	-2.900
595.077	-0.900
595.337	1.400
595.598	0.000
595.858	-0.700
596.118	-0.200
596.378	-0.200
596.639	-1.600
596.899	1.200
597.159	1.500
597.419	0.100
597.679	-0.500
597.939	-0.600
598.200	1.100
598.460	-0.800
598.720	0.000
598.980	2.600
599.240	4.400
599.500	1.700
599.761	1.500
600.021	0.100
600.281	1.500
600.541	0.700
600.801	-1.400
601.061	0.000
601.321	-0.700
601.581	-0.500
601.841	-2.200
602.101	2.800
602.361	0.200
602.621	2.300
602.881	-2.100
603.142	2.200
603.402	-4.300
603.662	1.800
603.922	3.200
604.182	0.200
604.442	1.000
604.702	1.900
604.961	-1.000
605.221	1.200
605.481	2.100
605.741	0.200
606.001	0.300
606.261	0.500
606.521	-1.400
606.781	0.500
607.041	2.000
607.301	-0.600
607.561	1.700
607.821	0.400
608.081	0.400
608.340	-0.100
608.600	6.100
608.860	-1.700
609.120	-0.200
609.380	2.000
609.640	-1.700
609.899	4.100
610.159	1.600
610.419	-0.100
610.679	-0.800
610.939	3.500
611.199	1.800
611.458	-0.200
611.718	0.700
611.978	1.600
612.238	0.600
612.497	-0.100
612.757	-1.200
613.017	1.500
613.277	-2.100
613.536	1.300
613.796	-1.700
614.056	1.000
614.315	2.700
614.575	2.300
614.835	0.700
615.094	-1.000
615.354	-0.800
615.614	-0.900
615.873	2.000
616.133	-1.900
616.393	-0.700
616.652	0.400
616.912	0.600
617.171	3.400
617.431	0.500
617.691	1.600
617.950	-1.600
618.210	-0.400
618.469	2.100
618.729	3.200
618.989	0.200
619.248	2.100
619.508	-1.100
619.767	1.200
620.027	1.600
620.286	1.900
620.546	-1.500
620.805	0.000
621.065	2.000
621.324	-2.600
621.584	-0.200
621.843	0.800
622.103	0.500
622.362	0.100
622.622	-0.500
622.881	0.400
623.140	0.600
623.400	-1.300
623.659	3.100
623.919	-3.900
624.178	2.900
624.437	3.200
624.697	-0.300
624.956	-1.400
625.216	-1.100
625.475	3.300
625.734	-0.700
625.994	-1.000
626.253	-2.100
626.512	0.900
626.772	2.200
627.031	1.000
627.290	-0.300
627.550	2.100
627.809	-1.300
628.068	1.000
628.327	-1.900
628.587	0.200
628.846	-1.800
629.105	0.400
629.364	0.300
629.624	-1.400
629.883	0.300
630.142	-2.900
630.401	0.600
630.661	1.700
630.920	1.300
631.179	2.100
631.438	-1.000
631.697	1.100
631.957	-0.600
632.216	2.000
632.475	0.200
632.734	-1.200
632.993	2.500
633.252	-0.400
633.511	-1.500
633.770	3.200
634.030	2.700
634.289	0.400
634.548	-0.300
634.807	1.000
635.066	2.500
635.325	2.100
635.584	-1.100
635.843	0.900
636.102	-0.600
636.361	2.100
636.620	3.000
636.879	2.000
637.138	-2.200
637.397	2.300
637.656	-0.800
637.915	0.200
638.174	-0.200
638.433	2.200
638.692	-0.200
638.951	-1.400
639.210	1.600
639.469	-2.900
639.728	0.400
639.987	-1.700
640.246	-2.400
640.505	0.000
640.764	1.000
641.023	-2.200
641.282	1.600
641.540	-0.200
641.799	1.600
642.058	4.800
642.317	2.000
642.576	1.000
642.835	3.100
643.094	1.900
643.352	0.600
643.611	0.000
643.870	-0.100
644.129	0.000
644.388	1.800
644.646	-1.300
644.905	0.800
645.164	2.200
645.423	3.500
645.682	4.100
645.940	-1.900
646.199	1.700
646.458	3.100
646.716	1.700
646.975	2.800
647.234	-2.200
647.493	2.700
647.751	1.100
648.010	1.200
648.269	-1.700
648.527	0.700
648.786	-1.700
649.045	1.700
649.303	2.500
649.562	2.600
649.821	0.200
650.079	-0.800
650.338	3.100
650.597	-1.100
650.855	2.100
651.114	1.500
651.372	2.400
651.631	0.200
651.890	0.100
652.148	0.400
652.407	-0.400
652.665	2.700
652.924	1.400
653.182	-2.700
653.441	1.100
653.699	0.900
653.958	0.100
654.216	0.500
654.475	-0.900
654.733	-7.200
654.992	8.100
655.250	128.200
655.509	324.100
655.767	503.100
656.026	840.400
656.284	1509.500
656.543	1595.900
656.801	949.500
657.059	422.200
657.318	166.700
657.576	57.400
657.835	10.200
658.093	-1.000
658.351	-5.900
658.610	-1.600
658.868	-1.100
659.127	0.600
659.385	-2.900
659.643	0.200
659.902	0.500
660.160	-0.500
660.418	2.800
660.677	-0.800
660.935	-2.000
661.193	3.200
661.452	0.600
661.710	-0.100
661.968	0.800
662.226	3.000
662.485	0.700
662.743	2.200
663.001	1.300
663.259	-0.400
663.518	-2.800
663.776	1.800
664.034	-1.100
664.292	1.500
664.550	1.500
664.809	1.400
665.067	0.400
665.325	1.800
665.583	1.200
665.841	-0.300
666.099	1.000
666.358	-0.900
666.616	0.800
666.874	1.700
667.132	-1.100
667.390	0.000
667.648	3.100
667.906	5.400
668.164	1.100
668.423	0.600
668.681	-1.800
668.939	1.200
669.197	-1.800
669.455	-1.600
669.713	-3.100
669.971	0.400
670.229	0.000
670.487	2.300
670.745	0.400
671.003	1.900
671.261	-2.500
671.519	1.200
671.777	0.100
672.035	-1.500
672.293	0.100
672.551	2.100
672.809	1.400
673.067	-1.300
673.325	-1.300
673.583	0.100
673.841	-1.200
674.099	2.900
674.356	0.000
674.614	0.900
674.872	-0.500
675.130	-0.900
675.388	0.700
675.646	-1.500
675.904	2.100
676.162	1.100
676.419	-0.600
676.677	-0.800
676.935	3.000
677.193	-1.800
677.451	-3.500
677.709	-2.500
677.966	0.400
678.224	-0.500
678.482	0.500
678.740	-0.400
678.998	4.500
679.255	-2.000
679.513	1.900
679.771	-0.100
680.029	2.300
680.286	1.600
680.544	-2.300
680.802	1.800
681.059	0.900
681.317	-3.000
681.575	-2.300
681.833	-1.500
682.090	-0.800
682.348	4.300
682.606	2.900
682.863	-2.800
683.121	2.700
683.379	-1.200
683.636	-1.000
683.894	0.600
684.151	-0.300
684.409	-0.900
684.667	0.700
684.924	1.400
685.182	1.600
685.439	0.300
685.697	-2.100
685.955	2.200
686.212	1.300
686.470	1.700
686.727	1.500
686.985	0.000
687.242	-0.400
687.500	0.800
687.757	-0.200
688.015	-0.200
688.272	3.100
688.530	1.400
688.787	-0.800
689.045	3.000
689.302	2.500
689.560	-1.900
689.817	1.400
690.075	0.800
690.332	2.000
690.589	-0.400
690.847	0.500
691.104	3.500
691.362	1.200
691.619	1.400
691.876	0.900
692.134	2.100
692.391	-2.700
692.649	2.400
692.906	2.100
693.163	-1.100
693.421	0.900
693.678	-2.100
693.935	0.600
694.193	-0.300
694.450	-1.100
694.707	2.400
694.965	1.600
695.222	-0.300
695.479	2.800
695.736	2.300
695.994	3.000
696.251	-0.200
696.508	-2.300
696.765	-2.200
697.023	1.000
697.280	4.200
697.537	-0.200
697.794	-3.000
698.052	2.200
698.309	6.200
698.566	0.900
698.823	2.800
699.080	0.800
699.338	2.500
699.595	1.700
699.852	-0.700
700.109	0.600
700.366	2.200
700.623	-0.700
700.880	0.500
701.137	-1.200
701.395	-0.500
701.652	-0.200
701.909	0.500
702.166	0.800
702.423	-0.700
702.680	-0.700
702.937	-0.500
703.194	2.200
703.451	0.100
703.708	1.400
703.965	1.500
704.222	-0.800
704.479	0.300
704.736	1.000
704.993	0.400
705.250	-0.400
705.507	0.200
705.764	1.700
706.021	1.100
706.278	-2.700
706.535	1.900
706.792	3.700
707.049	0.000
707.306	0.900
707.563	-0.800
707.820	2.600
708.077	-1.100
708.334	0.000
708.591	2.200
708.847	1.400
709.104	0.400
709.361	2.400
709.618	0.400
709.875	1.500
710.132	2.700
710.389	0.800
710.645	0.600
710.902	-1.400
711.159	2.400
711.416	1.600
711.673	-1.600
711.930	3.500
712.186	0.200
712.443	-0.300
712.700	0.000
712.957	4.700
713.213	-0.700
713.470	2.100
713.727	3.100
713.984	-1.000
714.240	2.700
714.497	3.200
714.754	-0.200
715.011	0.200
715.267	-0.900
715.524	0.300
715.781	0.000
716.037	0.800
716.294	1.100
716.551	0.400
716.807	2.400
717.064	3.200
717.321	-0.500
717.577	2.000
717.834	4.000
718.090	0.000
718.347	2.400
718.604	0.700
718.860	1.700
719.117	3.200
719.373	-0.300
719.630	2.700
719.886	0.300
720.143	-3.100
720.400	-1.100
720.656	2.600
720.913	2.500
721.169	-1.000
721.426	-1.000
721.682	-1.200
721.939	-0.100
722.195	3.400
722.452	0.400
722.708	3.000
722.965	-1.700
723.221	2.700
723.478	0.100
723.734	4.600
723.990	2.500
724.247	0.700
724.503	3.000
724.760	1.300
725.016	2.500
725.273	0.500
725.529	3.700
725.785	1.700
726.042	1.500
726.298	2.200
726.554	3.600
726.811	0.400
727.067	0.300
727.323	2.300
727.580	0.800
727.836	-0.100
728.092	3.200
728.349	4.100
728.605	-0.600
728.861	0.700
729.118	-2.800
729.374	3.500
729.630	3.200
729.886	-0.400
730.143	2.400
730.399	0.400
730.655	-0.400
730.911	2.500
731.168	-3.400
731.424	3.500
731.680	3.600
731.936	0.500
732.193	1.900
732.449	2.100
732.705	2.900
732.961	0.300
733.217	2.000
733.473	4.100
733.730	2.100
733.986	-2.300
734.242	2.100
734.498	3.300
734.754	-0.100
735.010	1.400
735.266	0.700
735.522	2.400
735.778	3.100
736.035	0.100
736.291	-1.200
736.547	2.800
736.803	-2.100
737.059	-2.300
737.315	3.400
737.571	2.000
737.827	1.300
738.083	-2.200
738.339	0.700
738.595	0.800
738.851	2.900
739.107	3.200
739.363	-0.200
739.619	-0.200
739.875	2.400
740.131	0.600
740.387	1.400
740.643	-0.800
740.899	2.600
741.155	0.100
741.411	1.000
741.666	-1.100
741.922	-1.000
742.178	0.900
742.434	3.200
742.690	-0.900
742.946	2.000
743.202	0.300
743.458	0.700
743.714	0.200
743.969	0.300
744.225	3.300
744.481	2.800
744.737	-1.300
744.993	2.100
745.249	0.700
745.504	0.300
745.760	-1.300
746.016	1.700
746.272	3.000
746.527	0.700
746.783	1.200
747.039	0.200
747.295	2.800
747.550	2.700
747.806	0.000
748.062	0.700
748.318	4.000
748.573	0.300
748.829	2.100
749.085	0.500
749.340	-3.200
749.596	6.200
749.852	1.200
750.108	-0.600
750.363	2.000
750.619	2.500
750.874	3.000
751.130	1.500
751.386	-2.600
751.641	-0.500
751.897	0.900
752.153	2.600
752.408	-0.400
752.664	-1.600
752.919	2.200
753.175	0.800
753.430	1.600
753.686	-2.100
753.942	2.400
754.197	-1.600
754.453	2.600
754.708	1.000
754.964	-2.200
755.219	2.200
755.475	-2.500
755.730	-0.600
755.986	1.400
756.241	-0.400
756.497	-1.000
756.752	-1.200
757.008	1.200
757.263	2.800
757.519	3.000
757.774	0.700
758.029	2.800
758.285	0.400
758.540	-1.700
758.796	3.700
759.051	-0.500
759.307	0.300
759.562	-3.400
759.817	-0.900
760.073	-0.700
760.328	1.200
760.583	3.800
760.839	0.300
761.094	0.600
761.349	-0.900
761.605	-0.600
761.860	2.400
762.115	1.200
762.371	-2.100
762.626	0.000
762.881	0.600
763.137	-0.700
763.392	-0.300
763.647	-0.800
763.902	-0.400
764.158	0.600
764.413	1.400
764.668	0.500
764.923	1.200
765.179	0.400
765.434	-2.700
765.689	3.700
765.944	0.300
766.199	0.900
766.455	-1.200
766.710	-0.900
766.965	0.500
767.220	1.900
767.475	-2.500
767.730	-1.400
767.985	1.100
768.241	4.000
768.496	1.500
768.751	1.400
769.006	1.300
769.261	0.100
769.516	0.600
769.771	1.500
770.026	-1.400
770.281	0.600
770.536	2.000
770.791	-0.300
771.047	-2.200
771.302	-2.900
771.557	3.600
771.812	0.700
772.067	3.000
772.322	0.800
772.577	0.600
772.832	0.200
773.087	0.400
773.342	-1.800
773.597	0.400
773.852	-0.700
774.107	-0.600
774.361	2.400
774.616	-0.500
774.871	-1.100
775.126	-1.100
775.381	0.600
775.636	0.500
775.891	-0.100
776.146	-0.800
776.401	-0.800
776.656	-1.100
776.911	-0.100
777.165	-0.800
777.420	-3.200
777.675	-1.300
777.930	1.400
778.185	-4.100
778.440	3.000
778.694	1.000
778.949	-0.100
779.204	1.100
779.459	2.600
779.714	0.200
779.968	1.700
780.223	1.300
780.478	-1.000
780.733	0.200
780.988	0.300
781.242	-0.600
781.497	-0.900
781.752	-1.200
782.006	1.800
782.261	0.200
782.516	0.300
782.771	1.800
783.025	-0.400
783.280	2.500
783.535	-2.000
783.789	-0.300
784.044	0.300
784.299	0.000
784.553	-0.300
784.808	-1.000
785.063	0.800
785.317	3.300
785.572	-0.200
785.826	0.700
786.081	-0.500
786.336	-0.900
786.590	-2.100
786.845	-3.400
787.099	2.800
787.354	-1.300
787.609	3.800
787.863	3.300
788.118	-0.100
788.372	-0.800
788.627	1.800
788.881	1.300
789.136	-2.400
789.390	-2.400
789.645	3.300
789.899	2.400
790.154	0.100
790.408	0.000
790.663	-0.600
790.917	3.200
791.172	-1.800
791.426	0.900
791.680	-2.700
791.935	-0.500
792.189	-0.200
792.444	2.200
792.698	-1.600
792.953	4.000
793.207	-0.800
793.461	-0.300
793.716	0.500
793.970	0.500
794.224	-1.200
794.479	2.800
794.733	0.900
794.987	2.600
795.242	2.300
795.496	0.500
795.750	-1.700
796.005	1.100
796.259	2.900
796.513	0.100
796.768	2.600
797.022	-0.300
797.276	-0.100
797.530	-1.100
797.785	-1.500
798.039	-0.300
798.293	0.500
798.547	1.400
798.802	0.200
799.056	-1.800
799.310	0.200
799.564	1.800
799.819	2.300
800.073	0.800
800.327	-0.400
800.581	0.700
800.835	-0.600
801.089	1.500
801.344	1.800
801.598	1.100
801.852	2.100
802.106	0.700
802.360	1.300
802.614	1.100
802.868	0.900
803.122	1.300
803.377	1.500
803.631	-2.300
803.885	2.200
804.139	-1.300
804.393	0.400
804.647	3.700
804.901	1.100
805.155	1.400
805.409	-1.900
805.663	-1.200
805.917	-0.600
806.171	0.400
806.425	0.400
806.679	-0.200
806.933	0.700
807.187	0.800
807.441	0.600
807.695	-1.300
807.949	1.100
808.203	1.800
808.457	1.300
808.711	-0.900
808.965	0.400
809.219	-0.200
809.473	0.800
809.726	-3.900
809.980	-0.200
810.234	0.200
810.488	2.100
810.742	-0.700
810.996	1.500
811.250	0.800
811.504	0.300
811.757	2.000
812.011	-0.900
812.265	0.600
812.519	-3.400
812.773	2.900
813.027	0.600
813.280	3.400
813.534	1.100
813.788	1.400
814.042	2.000
814.295	1.100
814.549	0.900
814.803	2.200
815.057	1.700
815.310	-0.100
815.564	-2.900
815.818	-1.600
816.072	2.200
816.325	1.800
816.579	-0.700
816.833	-0.400
817.086	2.100
817.340	2.000
817.594	1.800
817.848	-1.000
818.101	0.300
818.355	0.700
818.608	-0.400
818.862	-1.500
819.116	-3.700
819.369	-1.300
819.623	-0.100
819.877	-1.800
820.130	3.500
820.384	1.400
820.637	-1.600
820.891	5.600
821.144	-2.100
821.398	-1.400
821.652	0.300
821.905	1.700
822.159	4.100
822.412	1.300
822.666	-2.300
822.919	-0.200
823.173	0.100
823.426	-0.500
823.680	-0.700
823.933	-3.100
824.187	-1.600
824.440	-1.000
824.694	-1.200
824.947	1.800
825.201	-2.300
825.454	0.400
825.707	1.000
825.961	-0.600
826.214	2.900
826.468	0.000
826.721	2.600
826.975	-1.000
827.228	1.500
827.481	0.800
827.735	-1.100
827.988	0.400
828.241	-2.000
828.495	-0.100
828.748	2.200
829.001	0.700
829.255	1.300
829.508	1.500
829.761	2.000
830.015	-2.200
830.268	0.900
830.521	0.000
830.775	-2.700
831.028	-0.200
831.281	-1.800
831.534	-2.300
831.788	-0.400
832.041	2.300
832.294	0.000
832.547	-1.500
832.801	-0.200
833.054	0.200
833.307	0.000
833.560	0.700
833.813	-1.300
834.067	-2.600
834.320	1.100
834.573	1.400
834.826	0.300
835.079	0.200
835.332	-0.400
835.586	2.700
835.839	-0.400
836.092	-1.600
836.345	1.700
836.598	-0.200
836.851	0.000
837.104	3.900
837.357	-1.400
837.611	-1.100
837.864	1.300
838.117	-0.300
838.370	-0.300
838.623	-1.800
838.876	1.000
839.129	-0.700
839.382	0.700
839.635	3.000
839.888	1.000
840.141	1.200
840.394	1.300
840.647	2.500
840.900	0.400
841.153	0.400
841.406	1.700
841.659	1.700
841.912	0.400
842.165	-0.800
842.418	3.200
842.671	3.700
842.924	1.800
843.176	0.400
843.429	-0.600
843.682	0.600
843.935	1.800
844.188	1.300
844.441	2.800
844.694	3.400
844.947	2.900
845.200	-0.300
845.452	-0.600
845.705	2.600
845.958	1.100
846.211	-0.800
846.464	-0.100
846.717	0.700
846.969	0.300
847.222	3.500
847.475	-0.900
847.728	0.700
847.981	-0.100
848.233	1.400
848.486	0.900
848.739	-2.800
848.992	-1.100
849.244	0.300
849.497	-0.400
849.750	0.300
850.003	-2.500
850.255	0.800
850.508	-0.700
850.761	-0.200
851.013	0.600
851.266	3.600
851.519	0.300
851.771	-1.500
852.024	2.600
852.277	1.400
852.529	-0.400
852.782	2.100
853.035	-0.900
853.287	-0.200
853.540	-0.200
853.792	1.000
854.045	-1.600
854.298	-2.200
854.550	-0.100
854.803	-1.800
855.055	-0.800
855.308	-1.200
855.560	1.000
855.813	-1.400
856.066	0.300
856.318	-0.600
856.571	2.200
856.823	0.700
857.076	1.100
857.328	-0.900
857.581	-1.000
857.833	-1.900
858.086	2.400
858.338	0.700
858.591	0.400
858.843	0.800
859.095	-1.600
859.348	0.700
859.600	-1.000
859.853	0.800
860.105	-0.500
860.358	0.200
860.610	-0.300
860.862	0.400
861.115	0.100
861.367	3.100
861.620	0.100
861.872	0.600
862.124	-1.000
862.377	-0.800
862.629	-0.100
862.881	-0.500
863.134	1.100
863.386	-1.000
863.638	-3.000
863.891	3.400
864.143	2.500
864.395	2.000
864.648	0.500
864.900	0.000
865.152	1.500
865.404	0.100
865.657	2.800
865.909	3.400
866.161	0.600
866.413	3.100
866.666	2.600
866.918	-0.700
867.170	3.200
867.422	-0.400
867.674	1.700
867.927	2.100
868.179	1.500
868.431	-2.000
868.683	-1.100
868.935	1.800
869.187	1.500
869.440	1.900
869.692	2.100
869.944	0.700
870.196	3.600
870.448	1.000
870.700	1.800
870.952	-1.100
871.204	2.100
871.457	-2.300
871.709	1.000
871.961	2.000
872.213	3.000
872.465	-2.100
872.717	0.400
872.969	0.800
873.221	0.300
873.473	1.500
873.725	0.900
873.977	0.800
874.229	-0.500
874.481	-1.200
874.733	1.100
874.985	-1.400
875.237	3.100
875.489	-1.100
875.741	2.000
875.993	1.000
876.245	0.500
876.497	-0.900
876.749	-2.600
877.001	-0.400
877.253	1.800
877.504	1.000
877.756	0.700
878.008	1.000
878.260	1.000
878.512	-0.800
878.764	0.500
879.016	0.100
879.268	1.700
879.519	1.800
879.771	0.800
880.023	2.100
880.275	3.800
880.527	3.200
880.779	-0.700
881.030	2.200
881.282	2.200
881.534	-2.900
881.786	1.600
882.038	0.500
882.289	-1.100
882.541	0.800
882.793	-1.100
883.045	1.100
883.296	-3.100
883.548	2.000
883.800	0.900
884.052	-2.300
884.303	-0.500
884.555	0.400
884.807	1.600
885.058	2.800
885.310	-2.100
885.562	-1.000
885.813	2.700
886.065	0.400
886.317	2.600
886.568	1.400
886.820	0.600
887.072	0.900
887.323	0.900
887.575	3.500
887.826	-1.200
888.078	-0.100
888.330	-0.500
888.581	0.100
888.833	2.900
889.084	4.000
889.336	-0.100
889.587	0.100
889.839	-2.400
890.091	1.800
890.342	0.600
890.594	-0.400
890.845	-0.300
891.097	-1.000
891.348	3.500
891.600	5.500
891.851	0.600
892.103	4.300
892.354	-1.500
892.606	0.800
892.857	-1.500
893.108	0.100
893.360	2.200
893.611	1.800
893.863	1.600
894.114	-2.000
894.366	1.000
894.617	-1.100
894.868	2.200
895.120	2.300
895.371	-0.800
895.623	0.800
895.874	-0.300
896.125	-1.200
896.377	0.600
896.628	0.600
896.879	0.300
897.131	0.900
897.382	0.300
897.633	0.600
897.885	1.300
898.136	1.400
898.387	1.100
898.639	2.300
898.890	-0.100
899.141	2.600
899.392	-1.000
899.644	1.900
899.895	1.600
900.146	-0.500
900.397	1.700
900.649	-1.100
900.900	1.000
901.151	0.500
901.402	-2.400
901.653	2.100
901.905	1.500
902.156	-0.800
902.407	-0.200
902.658	2.000
902.909	1.600
903.160	3.700
903.412	1.300
903.663	2.700
903.914	0.100
904.165	-1.300
904.416	0.300
904.667	1.600
904.918	0.300
905.169	0.700
905.421	-1.500
905.672	-0.300
905.923	-0.800
906.174	0.700
906.425	-2.600
906.676	0.600
906.927	0.700
907.178	-1.200
907.429	1.400
907.680	-1.300
907.931	0.200
908.182	-0.800
908.433	0.600
908.684	0.500
908.935	2.300
909.186	-0.700
909.437	-2.500
909.688	-1.500
909.939	1.300
910.190	1.700
910.441	2.100
910.692	0.200
910.943	-0.900
911.194	0.500
911.445	2.900
911.695	1.800
911.946	3.400
912.197	0.800
912.448	-0.200
912.699	0.500
912.950	1.200
913.201	0.800
913.452	0.200
913.702	-2.300
913.953	-2.200
914.204	2.200
914.455	-2.800
914.706	3.300
914.957	4.000
915.207	-1.200
915.458	3.300
915.709	1.600
915.960	0.700
916.210	-1.000
916.461	0.300
916.712	2.700
916.963	0.500
917.213	1.100
917.464	1.800
917.715	-1.200
917.966	-0.700
918.216	1.300
918.467	0.200
918.718	0.900
918.969	2.600
919.219	2.400
919.470	0.700
919.721	0.100
919.971	1.200
920.222	-1.100
920.473	-0.100
920.723	1.600
920.974	-2.100
921.224	0.600
921.475	0.300
921.726	-1.700
921.976	2.800
922.227	1.400
922.477	1.600
922.728	-2.400
922.979	-1.300
923.229	3.000
923.480	1.500
923.730	-0.800
923.981	-1.800
924.231	0.300
924.482	1.200
924.732	-0.500
924.983	0.600
925.233	-1.100
925.484	0.100
925.734	2.900
925.985	0.100
926.235	0.600
926.486	0.700
926.736	1.600
926.987	2.000
927.237	1.400
927.488	-1.400
927.738	1.300
927.989	2.300
928.239	1.900
928.489	1.800
928.740	0.300
928.990	1.000
929.241	-0.700
929.491	-0.300
929.741	0.500
929.992	3.500
930.242	1.500
930.492	0.400
930.743	-0.400
930.993	0.700
931.243	0.700
931.494	0.600
931.744	1.400
931.994	-1.200
932.245	-1.900
932.495	-0.600
932.745	-0.900
932.996	1.700
933.246	2.000
933.496	0.900
933.746	0.800
933.997	1.000
934.247	-2.400
934.497	0.900
934.747	4.200
934.998	-2.100
935.248	2.200
935.498	2.700
935.748	0.800
935.998	-3.800
936.249	0.300
936.499	3.700
936.749	0.400
936.999	0.400
937.249	-1.000
937.499	0.700
937.750	0.500
938.000	0.100
938.250	-1.000
938.500	1.300
938.750	1.400
939.000	1.300
939.250	-2.300
939.500	1.900
939.750	0.000
940.000	3.300
940.251	-1.200
940.501	3.400
940.751	1.100
941.001	1.800
941.251	-0.500
941.501	0.400
941.751	0.500
942.001	2.000
942.251	0.200
942.501	2.600
942.751	-5.500
943.001	0.000
943.251	-1.300
943.501	1.300
943.751	-0.500
944.001	-0.400
944.251	-0.100
944.501	-1.600
944.751	1.600
945.000	0.700
945.250	-1.800
945.500	-2.700
945.750	-0.700
946.000	0.400
946.250	0.800
946.500	-1.400
946.750	0.500
947.000	2.100
947.249	0.100
947.499	2.800
947.749	-0.200
947.999	2.000
948.249	-2.200
948.499	0.300
948.749	-0.500
948.998	-1.300
949.248	0.700
949.498	-1.100
949.748	2.100
949.997	1.800
950.247	-2.300
950.497	2.000
950.747	1.500
950.997	2.800
951.246	0.800
951.496	1.100
951.746	0.300
951.995	-1.000
952.245	-0.700
952.495	1.500
952.745	3.100
952.994	-3.300
953.244	1.800
953.494	0.900
953.743	2.500
953.993	0.600
954.243	-1.600
954.492	0.100
954.742	2.200
954.992	0.100
955.241	1.000
955.491	-0.100
955.740	-1.600
955.990	1.500
956.240	1.900
956.489	0.200
956.739	2.100
956.988	-0.500
957.238	-2.400
957.488	-1.600
957.737	0.000
957.987	-2.500
958.236	-1.400
958.486	-0.900
958.735	2.700
958.985	-0.300
959.234	1.700
959.484	1.200
959.733	-1.100
959.983	-0.700
960.232	2.600
960.482	-1.800
960.731	-2.100
960.981	1.900
961.230	-1.300
961.480	-2.700
961.729	-2.800
961.978	-1.800
962.228	-2.100
962.477	1.700
962.727	-1.900
962.976	-1.300
963.226	0.900
963.475	-0.400
963.724	0.500
963.974	-0.200
964.223	-0.100
964.472	-2.700
964.722	2.400
964.971	-1.300
965.220	-1.500
965.470	-2.300
965.719	-0.100
965.968	1.300
966.218	-0.900
966.467	0.000
966.716	-1.700
966.966	0.700
967.215	-1.600
967.464	-0.100
967.713	-0.300
967.963	-0.900
968.212	-1.100
968.461	3.600
968.710	-0.800
968.960	0.900
969.209	-2.800
969.458	0.400
969.707	-1.400
969.956	-1.400
970.206	-1.700
970.455	1.100
970.704	1.300
970.953	1.300
971.202	-0.700
971.451	-2.400
971.701	2.400
971.950	0.200
972.199	-0.700
972.448	0.800
972.697	-2.500
972.946	2.400
973.195	2.300
973.444	-0.800
973.694	2.600
973.943	-0.400
974.192	1.800
974.441	-0.800
974.690	0.500
974.939	-0.900
975.188	0.600
975.437	-1.000
975.686	2.300
975.935	-1.300
976.184	-0.100
976.433	1.700
976.682	-1.200
976.931	0.300
977.180	1.600
977.429	1.600
977.678	-1.800
977.927	-1.100
978.176	2.000
978.425	-1.000
978.674	2.000
978.923	0.100
979.172	-0.600
979.421	2.200
979.670	1.800
979.918	0.000
980.167	-1.000
980.416	-1.400
980.665	-1.800
980.914	-2.200
981.163	0.000
981.412	0.100
981.661	-1.400
981.909	-1.300
982.158	-3.900
982.407	-2.600
982.656	1.900
982.905	1.300
983.154	0.700
983.402	-1.200
983.651	-1.000
983.900	1.600
984.149	2.000
984.398	1.500
984.646	1.900
984.895	-1.300
985.144	3.600
985.393	1.300
985.641	-1.300
985.890	0.100
986.139	1.800
986.387	0.400
986.636	-2.200
986.885	-0.400
987.134	-2.100
987.382	1.300
987.631	-1.300
987.880	2.800
988.128	2.900
988.377	-2.000
988.626	-1.200
988.874	-2.000
989.123	0.700
989.372	-1.500
989.620	2.500
989.869	-1.900
990.117	-0.700
990.366	-2.700
990.615	0.000
990.863	1.100
991.112	-1.100
991.360	0.400
991.609	1.300
991.857	-0.100
992.106	1.900
992.355	-1.600
992.603	2.500
992.852	0.800
993.100	1.700
993.349	-0.300
993.597	1.600
993.846	-0.600
994.094	2.300
994.343	0.900
994.591	1.100
994.840	1.100
995.088	0.300
995.336	-3.100
995.585	-0.100
995.833	-2.300
996.082	1.200
996.330	-0.500
996.579	1.100
996.827	1.700
997.075	-1.000
997.324	1.100
997.572	0.500
997.821	3.400
998.069	-0.200
998.317	3.300
998.566	0.600
998.814	1.100
999.062	-0.500
999.311	0.600
999.559	-0.800
999.807	-0.400
1000.056	-2.400
1000.304	-1.100
1000.552	-0.300
1000.801	3.000
1001.049	1.700
1001.297	2.200
1001.546	0.100
1001.794	1.000
1002.042	0.800
1002.290	-2.400
1002.539	1.400
1002.787	-0.500
1003.035	-1.000
1003.283	1.700
1003.531	2.800
1003.780	1.100
1004.028	-0.300
1004.276	3.700
1004.524	2.000
1004.772	0.000
1005.021	2.600
1005.269	2.000
1005.517	1.100
1005.765	2.100
1006.013	1.700
1006.261	-0.300
1006.509	0.400
1006.758	-0.100
1007.006	3.300
1007.254	0.900
1007.502	1.100
1007.750	-1.500
1007.998	-3.200
1008.246	-0.800
1008.494	1.100
1008.742	-1.100
1008.990	0.100
1009.238	1.400
1009.486	0.400
1009.735	-0.900
1009.983	2.000
1010.231	-1.600
1010.479	1.600
1010.727	-1.500
1010.975	-1.500
1011.223	1.200
1011.471	-0.600
1011.719	-2.800
1011.967	-1.700
1012.214	2.400
1012.462	-2.000
1012.710	1.200
1012.958	-0.400
1013.206	-0.100
1013.454	0.500
1013.702	0.200
1013.950	-0.500
1014.198	0.100
1014.446	-0.300
1014.694	2.300
1014.942	0.300
1015.189	3.300
1015.437	1.700
1015.685	-0.300
1015.933	-0.900
1016.181	3.800
1016.429	0.500
1016.677	0.700
1016.924	1.100
1017.172	1.400
1017.420	-2.400
1017.668	3.200
1017.916	-1.400
1018.163	-1.200
1018.411	2.700
1018.659	3.200
1018.907	3.300
1019.155	-0.200
1019.402	1.100
1019.650	2.000
1019.898	0.000
1020.145	0.500
1020.393	3.600
1020.641	0.400
1020.889	0.200
1021.136	-0.200
1021.384	-1.800
1021.632	0.700
1021.879	1.900
1022.127	2.000
1022.375	-2.400
1022.622	-0.100
1022.870	-0.100
1023.118	3.100
1023.365	1.200
1023.613	0.400
1023.861	-0.400
1024.108	1.000
1024.356	-0.200
1024.603	-2.000
1024.851	2.800
1025.099	3.400
1025.346	2.000
1025.594	-1.100
1025.841	4.100
1026.089	1.300
1026.336	-0.300
1026.584	0.600
1026.832	1.100
1027.079	2.000
1027.327	1.500
1027.574	2.100
1027.822	1.100
1028.069	0.800
1028.317	0.400
1028.564	0.100
1028.812	-0.400
1029.059	-1.900
1029.306	2.700
1029.554	-0.200
1029.801	2.400
1030.049	-1.000
1030.296	1.200
1030.544	-1.100
1030.791	-1.000
1031.039	0.000
1031.286	0.000
1031.533	0.400
1031.781	-0.300
1032.028	2.100
1032.276	2.300
1032.523	-1.000
1032.770	1.900
1033.018	-0.900
1033.265	1.200
1033.512	2.200
1033.760	-1.500
1034.007	1.600
1034.254	-1.100
1034.502	3.300
1034.749	-0.600
1034.996	1.400
1035.243	-2.900
1035.491	2.700
1035.738	-1.300
1035.985	1.600
1036.233	1.200
1036.480	-1.100
1036.727	1.100
1036.974	2.600
1037.222	1.200
1037.469	-2.000
1037.716	-0.800
1037.963	0.200
1038.210	-0.500
1038.458	4.800
1038.705	-1.600
1038.952	2.200
1039.199	-0.100
1039.446	1.200
1039.693	0.900
1039.941	-0.200
1040.188	0.700
1040.435	-1.400
1040.682	1.900
1040.929	-0.900
1041.176	1.900
1041.423	1.600
1041.671	-2.200
1041.918	2.500
1042.165	0.300
1042.412	1.100
1042.659	2.000
1042.906	1.800
1043.153	4.600
1043.400	0.800
1043.647	-2.300
1043.894	1.400
1044.141	-1.000
1044.388	1.800
1044.635	-2.900
1044.882	0.400
1045.129	-2.900
1045.376	2.800
1045.623	-1.700
1045.870	3.300
1046.117	-0.200
1046.364	1.000
1046.611	1.500
1046.858	-2.200
1047.105	4.100
1047.352	2.800
1047.599	2.300
1047.846	-0.400
1048.093	2.200
1048.340	1.000
1048.587	1.100
1048.833	-0.800
1049.080	-4.000
1049.327	-1.000
1049.574	-0.300
1049.821	2.500
1050.068	0.500
1050.315	-2.100
1050.561	2.500
1050.808	2.800
1051.055	-0.100
1051.302	-0.900
1051.549	0.800
1051.796	1.400
1052.042	1.900
1052.289	-3.400
1052.536	-0.200
1052.783	1.300
1053.030	-1.900
1053.276	-1.000
1053.523	1.500
1053.770	1.600
1054.017	2.600
1054.263	-1.500
1054.510	1.400
1054.757	-1.200
1055.003	-0.100
1055.250	1.900
1055.497	-0.200
1055.744	0.600
1055.990	-0.200
1056.237	1.500
1056.484	3.300
1056.730	0.200
1056.977	0.900
1057.224	2.000
1057.470	-0.200
1057.717	-1.100
1057.963	2.600
1058.210	1.600
1058.457	3.100
1058.703	0.900
1058.950	2.400
1059.197	0.500
1059.443	0.100
1059.690	-1.100
1059.936	1.100
1060.183	2.300
1060.429	0.700
1060.676	0.900
1060.922	0.700
1061.169	1.100
1061.416	1.100
1061.662	3.800
1061.909	-1.600
1062.155	-1.200
1062.402	1.600
1062.648	1.100
1062.895	0.200
1063.141	0.200
1063.387	1.200
1063.634	0.800
1063.880	2.100
1064.127	2.900
1064.373	1.600
1064.620	1.800
1064.866	-0.100
1065.113	-0.600
1065.359	2.300
1065.605	0.200
1065.852	0.600
1066.098	1.900
1066.345	0.700
1066.591	-0.700
1066.837	1.600
1067.084	-2.700
1067.330	1.200
1067.576	2.900
1067.823	-2.400
1068.069	1.100
1068.315	0.500
1068.562	0.000
1068.808	3.000
1069.054	0.700
1069.301	1.300
1069.547	3.300
1069.793	1.200
1070.040	-1.000
1070.286	0.800
1070.532	0.400
1070.778	-0.200
1071.025	4.400
1071.271	2.000
1071.517	-2.400
1071.763	0.700
1072.009	0.500
1072.256	1.100
1072.502	0.000
1072.748	0.400
1072.994	-1.200
1073.240	2.300
1073.487	-0.300
1073.733	2.600
1073.979	1.500
1074.225	-0.800
1074.471	0.100
1074.717	-1.300
1074.964	2.700
1075.210	0.300
1075.456	-0.900
1075.702	2.200
1075.948	0.800
1076.194	2.300
1076.440	0.700
1076.686	-2.300
1076.932	1.500
1077.178	1.500
1077.425	-2.500
1077.671	1.300
1077.917	-0.800
1078.163	-0.700
1078.409	1.800
1078.655	-2.200
1078.901	1.900
1079.147	0.200
1079.393	2.000
1079.639	-1.700
1079.885	-0.700
1080.131	1.000
1080.377	2.300
1080.623	1.600
1080.869	1.600
1081.115	0.200
1081.361	3.000
1081.606	1.000
1081.852	1.600
1082.098	3.100
1082.344	-0.800
1082.590	-0.900
1082.836	3.400
1083.082	0.900
1083.328	3.000
1083.574	2.300
1083.820	-1.100
1084.065	1.700
1084.311	-0.900
1084.557	-0.600
1084.803	-0.700
1085.049	-0.700
1085.295	-0.200
1085.541	-0.800
1085.786	0.200
1086.032	-1.700
1086.278	0.400
1086.524	1.300
1086.770	1.200
1087.015	1.200
1087.261	-1.000
1087.507	1.600
1087.753	-0.600
1087.998	-0.100
1088.244	0.100
1088.490	0.900
1088.736	-0.700
1088.981	0.900
1089.227	0.400
1089.473	-1.200
1089.719	-1.000
1089.964	-0.100
1090.210	0.800
1090.456	1.500
1090.701	1.500
1090.947	2.400
1091.193	-2.200
1091.438	0.100
1091.684	-2.100
1091.930	-0.200
1092.175	0.100
1092.421	1.200
1092.666	-1.200
1092.912	-2.300
1093.158	-2.000
1093.403	1.900
1093.649	1.400
1093.894	-1.400
1094.140	-0.800
1094.386	-0.200
1094.631	-2.800
1094.877	-1.900
1095.122	-2.900
1095.368	-1.200
1095.613	4.700
1095.859	-1.900
1096.104	-1.300
1096.350	1.700
1096.595	0.900
1096.841	1.400
1097.086	0.500
1097.332	2.400
1097.577	-0.100
1097.823	1.700
1098.068	1.100
1098.314	-3.900
1098.559	-1.100
1098.805	-0.800
1099.050	0.800
1099.295	0.900
1099.541	2.200
1099.786	-1.200
+++++End Spectral Data+++++
