Spectrometer Data
EN
------------------------------
Saving Time:Thu, Jan 22, 2026 10:53:27
Device Name:Aurora 4000
Version Info:V9_84
Serial Number:220120190816098402001100
Integral Time(æs):5000
Avg Count:50
Smoothness:0
Data Type:(0 1)Wavelength-Delete Dark
X-Axis Unit:nm
Y-Axis Unit:counts
Pixel Count:3482
Reserve0:250
Other Description:
+++++Begin Spectral Data+++++
200.149	-2.120
200.421	-0.160
200.693	-1.260
200.966	2.920
201.238	1.880
201.510	-0.240
201.782	-2.240
202.054	-0.340
202.326	1.700
202.598	-0.060
202.870	4.080
203.142	-0.140
203.414	0.320
203.686	1.860
203.958	-1.120
204.230	2.540
204.502	1.300
204.774	2.040
205.046	-0.220
205.318	-1.320
205.590	1.200
205.861	0.980
206.133	2.220
206.405	-1.340
206.677	-0.900
206.949	1.280
207.221	-1.060
207.493	-1.220
207.765	2.160
208.037	-2.060
208.308	0.820
208.580	-0.460
208.852	0.740
209.124	1.100
209.396	-0.800
209.668	1.760
209.939	1.140
210.211	-1.040
210.483	0.900
210.755	1.060
211.027	2.260
211.298	0.500
211.570	3.120
211.842	1.240
212.114	-1.500
212.385	0.200
212.657	3.280
212.929	2.920
213.200	0.560
213.472	1.320
213.744	1.380
214.016	2.040
214.287	2.140
214.559	0.520
214.831	-0.740
215.102	-3.600
215.374	1.020
215.645	2.240
215.917	3.180
216.189	-1.680
216.460	1.540
216.732	-0.820
217.004	2.440
217.275	0.280
217.547	1.360
217.818	0.600
218.090	1.880
218.361	0.440
218.633	-0.520
218.904	0.360
219.176	1.480
219.448	1.080
219.719	0.580
219.991	0.120
220.262	-0.960
220.534	1.200
220.805	0.360
221.076	0.700
221.348	0.480
221.619	-0.960
221.891	1.440
222.162	1.060
222.434	-0.720
222.705	0.000
222.977	2.220
223.248	1.340
223.519	-1.240
223.791	3.620
224.062	2.580
224.333	0.080
224.605	-0.300
224.876	2.320
225.148	3.300
225.419	1.520
225.690	3.440
225.962	0.420
226.233	2.100
226.504	-0.920
226.775	3.520
227.047	0.520
227.318	0.940
227.589	0.560
227.861	-0.600
228.132	1.280
228.403	1.300
228.674	2.020
228.946	-3.840
229.217	1.420
229.488	-2.400
229.759	1.200
230.030	0.720
230.302	0.780
230.573	-0.520
230.844	-0.400
231.115	-0.540
231.386	-1.840
231.657	2.620
231.929	1.060
232.200	1.640
232.471	-1.960
232.742	1.200
233.013	-0.600
233.284	2.040
233.555	1.100
233.826	0.580
234.097	-2.480
234.369	-3.000
234.640	-0.740
234.911	-0.120
235.182	2.200
235.453	-0.500
235.724	1.140
235.995	-3.420
236.266	-0.540
236.537	-0.100
236.808	-0.620
237.079	0.560
237.350	-1.340
237.621	1.600
237.892	0.980
238.163	0.460
238.434	-2.440
238.705	-1.240
238.975	0.120
239.246	-0.460
239.517	-0.500
239.788	0.340
240.059	3.600
240.330	3.360
240.601	-0.720
240.872	-1.880
241.143	-0.660
241.413	-1.900
241.684	-0.440
241.955	1.540
242.226	-1.640
242.497	-1.080
242.768	-1.580
243.038	-0.600
243.309	-0.480
243.580	3.320
243.851	-0.320
244.122	0.380
244.392	-0.820
244.663	-1.120
244.934	0.520
245.205	0.200
245.475	-0.220
245.746	1.160
246.017	0.100
246.288	-0.620
246.558	1.500
246.829	2.100
247.100	0.500
247.370	0.380
247.641	-1.500
247.912	0.340
248.182	0.080
248.453	2.200
248.724	0.400
248.994	0.520
249.265	0.520
249.535	1.120
249.806	-1.020
250.077	2.280
250.347	-0.920
250.618	-0.620
250.888	1.180
251.159	2.160
251.430	0.820
251.700	-0.020
251.971	-1.840
252.241	-1.120
252.512	-2.660
252.782	-2.720
253.053	-2.040
253.323	-0.840
253.594	-0.700
253.864	-1.180
254.135	1.220
254.405	-2.660
254.676	-0.680
254.946	0.920
255.216	-1.860
255.487	0.540
255.757	-2.000
256.028	2.200
256.298	-0.240
256.569	-1.020
256.839	-1.700
257.109	-0.540
257.380	0.700
257.650	-0.780
257.920	0.000
258.191	1.760
258.461	-1.240
258.731	1.520
259.002	0.920
259.272	0.160
259.542	-1.900
259.813	0.220
260.083	1.200
260.353	1.420
260.624	2.080
260.894	-0.200
261.164	1.680
261.434	1.940
261.705	-0.060
261.975	2.740
262.245	-1.440
262.515	-0.420
262.786	2.220
263.056	2.380
263.326	-1.420
263.596	-1.060
263.866	-0.020
264.137	-1.880
264.407	0.560
264.677	-3.080
264.947	0.420
265.217	2.460
265.487	1.800
265.757	-0.600
266.027	-0.420
266.298	1.960
266.568	-1.620
266.838	-0.260
267.108	-1.640
267.378	-0.500
267.648	-1.240
267.918	0.500
268.188	1.440
268.458	2.640
268.728	-1.100
268.998	-0.440
269.268	0.060
269.538	0.860
269.808	-2.400
270.078	-0.240
270.348	1.660
270.618	0.180
270.888	1.560
271.158	-1.660
271.428	-0.320
271.698	-1.280
271.968	-0.220
272.238	-1.940
272.508	-0.660
272.778	0.000
273.048	-0.740
273.318	-1.040
273.587	-0.300
273.857	-0.100
274.127	-0.520
274.397	-1.580
274.667	1.280
274.937	-0.160
275.207	-0.020
275.476	0.700
275.746	1.880
276.016	-1.580
276.286	1.860
276.556	-1.180
276.826	0.560
277.095	2.460
277.365	0.760
277.635	-0.800
277.905	4.380
278.174	0.280
278.444	0.240
278.714	2.260
278.984	0.300
279.253	-1.740
279.523	-0.760
279.793	-0.540
280.062	1.760
280.332	-0.580
280.602	-1.620
280.871	-0.480
281.141	-2.860
281.411	0.160
281.680	-1.920
281.950	1.300
282.220	1.120
282.489	-1.680
282.759	-1.440
283.029	0.320
283.298	2.400
283.568	-0.400
283.837	-4.020
284.107	-2.960
284.376	1.900
284.646	-0.840
284.916	1.160
285.185	-0.860
285.455	-0.160
285.724	-4.520
285.994	-1.240
286.263	-0.400
286.533	1.240
286.802	3.120
287.072	0.120
287.341	3.840
287.611	0.300
287.880	-1.280
288.149	-0.040
288.419	0.060
288.688	-0.040
288.958	-0.120
289.227	0.300
289.497	0.800
289.766	-0.460
290.035	-3.300
290.305	0.120
290.574	0.160
290.844	-4.020
291.113	1.260
291.382	1.140
291.652	-1.200
291.921	2.200
292.190	0.060
292.460	0.840
292.729	-2.000
292.998	3.080
293.268	1.080
293.537	1.060
293.806	-0.120
294.075	1.660
294.345	0.380
294.614	-1.900
294.883	-1.140
295.152	-2.340
295.422	1.100
295.691	2.260
295.960	-2.420
296.229	-0.120
296.498	1.960
296.768	1.720
297.037	3.300
297.306	4.720
297.575	-0.220
297.844	-2.740
298.114	-1.060
298.383	-2.060
298.652	0.640
298.921	-2.360
299.190	0.640
299.459	-0.260
299.728	0.940
299.997	1.780
300.266	1.000
300.536	-0.340
300.805	0.660
301.074	-0.140
301.343	-0.400
301.612	1.720
301.881	1.360
302.150	1.420
302.419	-2.320
302.688	1.720
302.957	0.700
303.226	0.060
303.495	0.820
303.764	0.040
304.033	-0.420
304.302	-0.260
304.571	-0.520
304.840	-2.380
305.109	1.640
305.378	1.860
305.646	2.640
305.915	0.620
306.184	2.020
306.453	-2.480
306.722	-0.400
306.991	0.280
307.260	1.140
307.529	0.760
307.798	-1.340
308.066	-1.240
308.335	-0.040
308.604	2.380
308.873	-2.440
309.142	1.860
309.411	0.400
309.679	-0.760
309.948	0.560
310.217	1.300
310.486	-0.420
310.755	1.420
311.023	0.040
311.292	1.680
311.561	-1.280
311.830	-1.040
312.098	0.940
312.367	-1.660
312.636	1.620
312.904	1.840
313.173	2.520
313.442	1.760
313.711	1.720
313.979	-0.280
314.248	0.800
314.517	-0.400
314.785	1.760
315.054	-0.980
315.322	0.780
315.591	1.540
315.860	-2.600
316.128	-0.520
316.397	2.900
316.665	3.120
316.934	2.700
317.203	-1.580
317.471	-1.420
317.740	2.740
318.008	0.520
318.277	0.380
318.545	3.060
318.814	2.740
319.082	-1.460
319.351	-3.260
319.619	-1.220
319.888	1.440
320.156	0.040
320.425	-1.520
320.693	-1.500
320.962	-1.480
321.230	-1.280
321.499	0.680
321.767	0.780
322.036	-1.140
322.304	4.460
322.573	-1.340
322.841	0.640
323.109	-1.680
323.378	-1.480
323.646	0.940
323.914	-0.620
324.183	0.320
324.451	-0.300
324.720	0.900
324.988	3.100
325.256	-2.420
325.525	-0.500
325.793	2.780
326.061	-1.760
326.330	-0.340
326.598	-0.500
326.866	-0.780
327.134	-1.140
327.403	2.500
327.671	0.820
327.939	1.120
328.207	2.020
328.476	0.340
328.744	-1.140
329.012	2.820
329.280	-0.180
329.549	-0.380
329.817	2.780
330.085	3.060
330.353	2.680
330.621	0.800
330.889	1.640
331.158	-0.020
331.426	2.940
331.694	0.680
331.962	-1.200
332.230	-0.440
332.498	3.900
332.766	0.720
333.035	1.740
333.303	-1.220
333.571	2.160
333.839	1.480
334.107	1.840
334.375	1.780
334.643	-0.960
334.911	-0.180
335.179	1.820
335.447	2.780
335.715	-0.440
335.983	0.740
336.251	5.440
336.519	1.940
336.787	1.760
337.055	-1.060
337.323	0.820
337.591	2.760
337.859	0.860
338.127	2.220
338.395	1.560
338.663	-0.860
338.931	3.640
339.199	0.440
339.467	1.920
339.734	1.580
340.002	0.540
340.270	0.800
340.538	2.040
340.806	2.740
341.074	1.820
341.342	-0.420
341.610	0.960
341.877	-1.660
342.145	1.100
342.413	0.860
342.681	-0.980
342.949	1.700
343.216	2.920
343.484	-1.040
343.752	0.620
344.020	1.540
344.288	0.500
344.555	0.940
344.823	0.320
345.091	-4.300
345.359	0.380
345.626	0.820
345.894	1.980
346.162	-0.160
346.429	2.140
346.697	1.360
346.965	1.980
347.232	0.440
347.500	0.260
347.768	-1.920
348.035	1.100
348.303	2.500
348.571	1.200
348.838	1.080
349.106	-2.240
349.374	-0.940
349.641	1.360
349.909	1.920
350.176	-3.020
350.444	-2.160
350.712	-0.780
350.979	0.940
351.247	1.240
351.514	-2.220
351.782	-3.100
352.049	2.040
352.317	0.940
352.584	-0.960
352.852	2.560
353.119	0.360
353.387	1.980
353.654	1.300
353.922	2.020
354.189	2.160
354.457	1.280
354.724	-1.020
354.992	1.380
355.259	1.480
355.526	2.540
355.794	-1.200
356.061	-0.100
356.329	3.160
356.596	0.500
356.863	0.880
357.131	-0.060
357.398	1.220
357.666	1.580
357.933	0.080
358.200	-0.880
358.468	1.160
358.735	0.040
359.002	2.300
359.270	2.280
359.537	0.840
359.804	2.300
360.071	0.300
360.339	0.900
360.606	-0.060
360.873	1.260
361.141	1.460
361.408	1.480
361.675	-0.980
361.942	-1.820
362.210	1.540
362.477	-0.520
362.744	-0.760
363.011	-0.700
363.278	1.660
363.546	-0.680
363.813	1.640
364.080	0.300
364.347	1.380
364.614	1.040
364.881	-2.140
365.148	1.720
365.416	-2.620
365.683	0.720
365.950	-1.820
366.217	3.640
366.484	0.700
366.751	-2.600
367.018	-0.680
367.285	-1.780
367.552	2.260
367.819	-2.500
368.086	2.700
368.354	2.420
368.621	1.540
368.888	1.280
369.155	1.440
369.422	-0.320
369.689	-2.400
369.956	1.360
370.223	0.180
370.490	1.360
370.757	0.460
371.024	2.680
371.290	3.240
371.557	1.540
371.824	-0.560
372.091	-0.180
372.358	0.360
372.625	1.920
372.892	1.460
373.159	0.880
373.426	2.240
373.693	-0.400
373.960	2.620
374.226	2.680
374.493	-2.060
374.760	3.880
375.027	0.140
375.294	2.460
375.561	1.500
375.827	2.300
376.094	0.820
376.361	0.920
376.628	0.900
376.895	-1.460
377.161	3.460
377.428	1.860
377.695	1.600
377.962	-3.380
378.228	2.460
378.495	-0.260
378.762	-1.540
379.029	0.920
379.295	1.560
379.562	-0.880
379.829	2.660
380.095	0.760
380.362	0.180
380.629	-0.240
380.896	1.900
381.162	1.700
381.429	-1.000
381.695	-0.160
381.962	-1.380
382.229	-1.520
382.495	1.700
382.762	-1.720
383.029	-0.320
383.295	1.540
383.562	-1.240
383.828	0.720
384.095	-0.080
384.361	2.180
384.628	0.920
384.895	1.800
385.161	1.640
385.428	1.060
385.694	1.500
385.961	3.120
386.227	-1.960
386.494	1.900
386.760	-0.280
387.027	-0.160
387.293	-1.560
387.560	2.800
387.826	-0.300
388.092	0.680
388.359	1.500
388.625	-2.060
388.892	0.720
389.158	-1.380
389.425	3.320
389.691	1.900
389.957	-1.520
390.224	0.080
390.490	-1.360
390.757	0.000
391.023	-1.320
391.289	-2.080
391.556	1.960
391.822	-0.900
392.088	0.120
392.355	1.940
392.621	0.980
392.887	0.860
393.154	1.040
393.420	-2.220
393.686	-0.880
393.952	-1.060
394.219	1.560
394.485	0.940
394.751	-2.080
395.017	2.740
395.284	-0.120
395.550	1.300
395.816	1.960
396.082	-0.440
396.349	1.020
396.615	1.400
396.881	0.140
397.147	2.280
397.413	-1.120
397.679	2.720
397.946	-0.240
398.212	-4.160
398.478	0.720
398.744	0.020
399.010	1.720
399.276	0.960
399.542	-1.180
399.808	-0.200
400.075	-0.180
400.341	0.140
400.607	-0.040
400.873	2.020
401.139	0.900
401.405	1.700
401.671	1.240
401.937	1.020
402.203	-1.300
402.469	2.100
402.735	1.060
403.001	3.340
403.267	1.760
403.533	2.100
403.799	2.840
404.065	2.180
404.331	2.440
404.597	1.720
404.863	0.660
405.129	0.880
405.395	1.000
405.661	-1.520
405.927	0.020
406.192	0.200
406.458	1.820
406.724	3.000
406.990	-0.200
407.256	-2.060
407.522	-1.080
407.788	1.060
408.054	1.500
408.319	0.020
408.585	-0.380
408.851	0.080
409.117	-3.000
409.383	0.040
409.649	0.900
409.914	-0.220
410.180	-0.200
410.446	0.180
410.712	2.940
410.977	-2.180
411.243	0.160
411.509	3.360
411.775	3.820
412.040	1.000
412.306	3.100
412.572	2.000
412.838	-0.960
413.103	0.180
413.369	1.080
413.635	1.620
413.900	-0.220
414.166	-0.260
414.432	-2.420
414.697	4.300
414.963	0.820
415.229	-0.880
415.494	-1.720
415.760	-0.280
416.025	-0.180
416.291	1.260
416.557	0.740
416.822	-1.260
417.088	1.380
417.353	-1.180
417.619	-2.100
417.884	1.960
418.150	-1.140
418.416	1.560
418.681	-0.040
418.947	-2.080
419.212	-0.220
419.478	-1.380
419.743	0.700
420.009	0.080
420.274	2.000
420.540	0.180
420.805	0.680
421.071	1.360
421.336	-1.220
421.601	1.960
421.867	-0.340
422.132	-1.060
422.398	1.840
422.663	-0.160
422.929	0.120
423.194	-0.840
423.459	2.840
423.725	-0.840
423.990	0.880
424.256	-0.900
424.521	1.020
424.786	2.000
425.052	1.540
425.317	-0.960
425.582	-1.080
425.848	-1.120
426.113	0.580
426.378	-3.120
426.643	-0.400
426.909	1.820
427.174	-3.120
427.439	0.900
427.705	0.540
427.970	0.060
428.235	1.940
428.500	-5.420
428.766	-2.140
429.031	0.840
429.296	-0.880
429.561	-1.240
429.826	1.460
430.092	0.880
430.357	-1.520
430.622	-0.280
430.887	-1.340
431.152	-1.180
431.417	1.240
431.683	-1.260
431.948	0.800
432.213	-0.220
432.478	-1.540
432.743	-0.580
433.008	1.400
433.273	-0.140
433.538	0.960
433.803	-7.680
434.069	3.880
434.334	2.160
434.599	-2.980
434.864	-1.280
435.129	0.440
435.394	-0.120
435.659	-0.640
435.924	1.420
436.189	0.580
436.454	2.320
436.719	-0.580
436.984	2.760
437.249	0.160
437.514	-2.620
437.779	0.340
438.044	-1.340
438.309	1.340
438.574	1.540
438.838	-2.880
439.103	-2.000
439.368	0.120
439.633	0.660
439.898	-0.100
440.163	-0.400
440.428	1.420
440.693	1.420
440.958	2.500
441.222	-0.080
441.487	-1.540
441.752	1.820
442.017	-2.580
442.282	1.400
442.547	3.320
442.811	3.600
443.076	1.360
443.341	-1.580
443.606	0.800
443.871	-2.420
444.135	0.260
444.400	-0.180
444.665	-0.480
444.930	1.340
445.194	-1.040
445.459	2.460
445.724	-1.620
445.989	-2.180
446.253	-3.920
446.518	2.860
446.783	-2.380
447.047	1.560
447.312	0.180
447.577	-1.700
447.841	2.140
448.106	1.580
448.371	0.140
448.635	1.300
448.900	-1.680
449.165	-3.820
449.429	-1.220
449.694	1.480
449.958	-2.920
450.223	1.240
450.488	0.300
450.752	2.740
451.017	-0.820
451.281	-2.260
451.546	-0.060
451.810	1.120
452.075	2.100
452.339	3.720
452.604	-0.700
452.868	1.340
453.133	1.440
453.397	-2.880
453.662	0.080
453.926	0.120
454.191	1.260
454.455	1.140
454.720	-0.100
454.984	-1.960
455.249	-0.420
455.513	-1.740
455.778	3.480
456.042	-0.040
456.306	1.580
456.571	1.900
456.835	2.640
457.100	1.080
457.364	0.920
457.628	-0.840
457.893	-0.020
458.157	1.140
458.421	0.780
458.686	-1.640
458.950	-2.540
459.214	-3.680
459.479	1.300
459.743	-1.520
460.007	0.220
460.272	2.080
460.536	3.060
460.800	-1.040
461.064	4.200
461.329	1.200
461.593	1.640
461.857	1.820
462.121	-2.100
462.386	0.840
462.650	2.220
462.914	-3.000
463.178	0.080
463.442	1.480
463.707	1.080
463.971	1.000
464.235	-2.020
464.499	1.860
464.763	2.140
465.027	2.680
465.292	2.840
465.556	2.920
465.820	-0.120
466.084	2.120
466.348	2.760
466.612	3.080
466.876	-3.660
467.140	0.080
467.404	-0.360
467.668	-0.120
467.933	-0.240
468.197	0.960
468.461	1.080
468.725	-2.220
468.989	-0.400
469.253	0.100
469.517	2.980
469.781	3.120
470.045	-0.060
470.309	-0.260
470.573	-1.700
470.837	0.660
471.101	0.760
471.365	-1.880
471.629	-1.820
471.892	-0.220
472.156	1.060
472.420	-1.460
472.684	1.060
472.948	-1.020
473.212	-0.280
473.476	2.400
473.740	2.980
474.004	2.280
474.268	1.220
474.531	-1.200
474.795	2.240
475.059	1.520
475.323	2.740
475.587	-0.820
475.851	1.720
476.114	-0.220
476.378	1.060
476.642	0.700
476.906	1.980
477.170	1.000
477.433	2.960
477.697	0.260
477.961	1.880
478.225	-2.640
478.488	1.920
478.752	-0.280
479.016	0.360
479.280	3.000
479.543	-0.400
479.807	-1.320
480.071	-0.220
480.334	1.880
480.598	1.600
480.862	1.340
481.125	0.060
481.389	-1.080
481.653	-4.060
481.916	-0.700
482.180	-1.340
482.444	-2.100
482.707	-3.480
482.971	-3.800
483.234	-2.080
483.498	-2.440
483.762	-0.260
484.025	-5.780
484.289	-2.580
484.552	-4.880
484.816	3.820
485.079	43.080
485.343	58.260
485.607	117.520
485.870	301.360
486.134	496.960
486.397	415.100
486.661	183.980
486.924	47.680
487.188	7.920
487.451	-0.560
487.715	-2.380
487.978	0.020
488.241	2.340
488.505	0.700
488.768	1.700
489.032	-0.460
489.295	-1.500
489.559	-0.700
489.822	-0.320
490.085	0.940
490.349	-0.100
490.612	3.060
490.876	-2.180
491.139	-0.460
491.402	1.880
491.666	0.600
491.929	1.460
492.192	-0.420
492.456	-1.500
492.719	1.720
492.982	1.520
493.246	1.740
493.509	0.520
493.772	0.280
494.035	2.740
494.299	1.600
494.562	2.780
494.825	2.920
495.088	0.740
495.352	2.860
495.615	2.920
495.878	1.520
496.141	0.760
496.405	1.680
496.668	2.640
496.931	3.980
497.194	2.540
497.457	3.940
497.721	0.900
497.984	2.800
498.247	-0.240
498.510	0.720
498.773	-0.280
499.036	-0.200
499.299	0.480
499.562	1.040
499.826	3.200
500.089	0.840
500.352	0.720
500.615	1.640
500.878	-0.380
501.141	-0.340
501.404	2.140
501.667	1.880
501.930	3.200
502.193	0.920
502.456	1.300
502.719	3.740
502.982	-0.100
503.245	2.240
503.508	1.580
503.771	-1.140
504.034	2.940
504.297	-1.340
504.560	0.140
504.823	-0.580
505.086	0.320
505.349	0.980
505.612	2.220
505.875	3.880
506.138	3.820
506.401	2.720
506.664	0.420
506.927	1.940
507.189	3.060
507.452	2.320
507.715	-0.400
507.978	1.200
508.241	4.040
508.504	3.800
508.767	1.040
509.029	-0.040
509.292	-0.100
509.555	1.200
509.818	-0.040
510.081	1.420
510.343	-2.160
510.606	-0.440
510.869	2.080
511.132	1.020
511.395	-0.800
511.657	2.320
511.920	-0.760
512.183	0.000
512.446	1.920
512.708	-1.440
512.971	-2.600
513.234	3.880
513.496	1.700
513.759	1.800
514.022	2.740
514.284	3.040
514.547	1.360
514.810	1.140
515.072	0.900
515.335	-0.560
515.598	2.860
515.860	4.840
516.123	1.040
516.386	1.480
516.648	0.260
516.911	-0.840
517.173	0.840
517.436	-1.400
517.698	1.300
517.961	-2.380
518.224	1.840
518.486	1.480
518.749	-1.620
519.011	-3.660
519.274	-2.040
519.536	-2.500
519.799	-2.340
520.061	2.220
520.324	1.300
520.586	0.920
520.849	2.060
521.111	3.200
521.374	0.280
521.636	-0.760
521.899	2.400
522.161	-1.000
522.423	2.360
522.686	3.000
522.948	3.960
523.211	2.240
523.473	1.640
523.736	2.140
523.998	1.380
524.260	3.020
524.523	1.200
524.785	0.860
525.047	2.780
525.310	3.340
525.572	0.180
525.834	-0.220
526.097	0.260
526.359	0.980
526.621	-0.220
526.884	2.580
527.146	-0.980
527.408	-0.800
527.670	1.400
527.933	4.280
528.195	1.320
528.457	5.280
528.719	1.320
528.982	-1.460
529.244	2.760
529.506	2.120
529.768	2.060
530.031	2.000
530.293	4.080
530.555	1.360
530.817	0.300
531.079	3.460
531.342	1.300
531.604	1.320
531.866	-0.620
532.128	1.180
532.390	1.080
532.652	0.740
532.914	2.060
533.176	-0.700
533.439	3.660
533.701	1.500
533.963	1.380
534.225	0.200
534.487	-0.580
534.749	-0.020
535.011	-1.440
535.273	1.320
535.535	-1.720
535.797	1.660
536.059	0.480
536.321	2.280
536.583	5.440
536.845	0.200
537.107	2.360
537.369	-3.480
537.631	-1.640
537.893	0.340
538.155	-2.760
538.417	1.100
538.679	-0.800
538.941	0.360
539.203	1.520
539.465	1.080
539.727	0.620
539.989	0.220
540.251	0.580
540.512	0.980
540.774	0.880
541.036	-1.680
541.298	3.600
541.560	0.420
541.822	0.400
542.084	2.320
542.345	1.180
542.607	2.920
542.869	1.680
543.131	2.400
543.393	3.460
543.655	0.280
543.916	0.900
544.178	1.260
544.440	-4.980
544.702	3.340
544.963	1.100
545.225	1.780
545.487	-0.340
545.749	-1.620
546.010	1.360
546.272	2.400
546.534	0.380
546.795	1.420
547.057	2.460
547.319	-1.000
547.581	0.120
547.842	1.680
548.104	2.540
548.366	0.040
548.627	0.660
548.889	1.560
549.150	-0.540
549.412	3.560
549.674	-0.320
549.935	2.280
550.197	3.000
550.459	0.760
550.720	2.100
550.982	3.320
551.243	-0.300
551.505	2.860
551.766	2.640
552.028	-1.340
552.289	2.540
552.551	-1.720
552.813	3.340
553.074	1.520
553.336	-1.280
553.597	0.520
553.859	-0.940
554.120	-1.660
554.382	2.620
554.643	0.560
554.904	0.860
555.166	0.680
555.427	0.960
555.689	0.520
555.950	0.580
556.212	1.860
556.473	-1.400
556.735	1.540
556.996	1.740
557.257	-0.320
557.519	-0.200
557.780	0.760
558.041	1.740
558.303	-1.580
558.564	0.000
558.826	-2.680
559.087	0.940
559.348	-1.580
559.609	0.800
559.871	-0.040
560.132	-0.260
560.393	-0.920
560.655	-2.880
560.916	-1.240
561.177	2.780
561.439	1.420
561.700	-2.560
561.961	2.260
562.222	1.700
562.484	-1.420
562.745	0.660
563.006	2.380
563.267	1.780
563.528	-0.320
563.790	2.920
564.051	1.400
564.312	1.480
564.573	4.000
564.834	-1.160
565.095	-0.220
565.357	0.420
565.618	2.520
565.879	0.380
566.140	-0.660
566.401	3.980
566.662	-1.380
566.923	1.840
567.184	4.520
567.446	-0.040
567.707	-1.280
567.968	1.780
568.229	-0.280
568.490	-2.300
568.751	-0.360
569.012	1.740
569.273	2.180
569.534	1.860
569.795	-0.060
570.056	1.460
570.317	-3.020
570.578	-2.500
570.839	1.540
571.100	1.940
571.361	-0.160
571.622	0.700
571.883	-1.000
572.144	0.500
572.405	0.520
572.666	0.700
572.927	1.800
573.188	-1.260
573.449	1.720
573.709	-1.320
573.970	2.620
574.231	-1.200
574.492	-1.060
574.753	-2.200
575.014	2.500
575.275	-1.960
575.536	1.780
575.796	-0.380
576.057	1.440
576.318	-0.640
576.579	0.140
576.840	1.320
577.100	1.480
577.361	-0.480
577.622	2.960
577.883	-1.840
578.144	0.600
578.404	1.120
578.665	-1.760
578.926	0.400
579.187	0.580
579.447	0.160
579.708	-1.540
579.969	-1.740
580.229	0.600
580.490	-0.640
580.751	-1.920
581.012	-0.560
581.272	-0.740
581.533	-1.280
581.794	-2.300
582.054	-0.880
582.315	-0.700
582.576	-0.980
582.836	1.720
583.097	-1.520
583.357	-2.360
583.618	1.180
583.879	-2.040
584.139	1.380
584.400	-1.120
584.660	0.480
584.921	1.780
585.181	-0.820
585.442	0.280
585.703	2.560
585.963	3.620
586.224	0.720
586.484	-0.640
586.745	0.780
587.005	-1.420
587.266	-2.640
587.526	1.380
587.787	0.460
588.047	-0.440
588.308	-0.740
588.568	-3.420
588.829	0.540
589.089	0.180
589.349	-0.100
589.610	2.140
589.870	-1.140
590.131	-0.380
590.391	-1.440
590.651	2.900
590.912	-0.800
591.172	0.000
591.433	1.600
591.693	0.660
591.953	-2.760
592.214	-0.800
592.474	1.460
592.734	0.940
592.995	-2.120
593.255	-0.060
593.515	-2.780
593.776	-2.320
594.036	-4.400
594.296	-1.760
594.557	0.320
594.817	-3.540
595.077	-0.800
595.337	0.640
595.598	-0.980
595.858	-0.520
596.118	-0.360
596.378	-0.520
596.639	-2.600
596.899	1.100
597.159	-0.440
597.419	-1.340
597.679	-2.120
597.939	-1.620
598.200	-1.040
598.460	-0.780
598.720	-0.360
598.980	2.400
599.240	3.440
599.500	0.680
599.761	1.520
600.021	-1.620
600.281	0.340
600.541	1.300
600.801	-1.700
601.061	-1.600
601.321	-0.660
601.581	-0.820
601.841	-4.260
602.101	-2.600
602.361	-4.820
602.621	-2.320
602.881	-6.300
603.142	-2.800
603.402	-7.780
603.662	-0.260
603.922	2.100
604.182	-0.580
604.442	0.160
604.702	1.180
604.961	-1.480
605.221	0.760
605.481	2.060
605.741	-1.000
606.001	0.240
606.261	0.200
606.521	-2.100
606.781	-0.980
607.041	-1.060
607.301	-3.300
607.561	0.260
607.821	-0.500
608.081	-1.560
608.340	-0.880
608.600	5.580
608.860	-1.920
609.120	-0.920
609.380	0.980
609.640	-0.440
609.899	2.920
610.159	2.460
610.419	-0.180
610.679	-1.420
610.939	2.640
611.199	2.360
611.458	-0.880
611.718	-0.300
611.978	1.420
612.238	-0.240
612.497	-0.240
612.757	-1.860
613.017	1.240
613.277	-2.380
613.536	1.060
613.796	-2.260
614.056	0.520
614.315	2.460
614.575	1.680
614.835	0.380
615.094	-0.800
615.354	-0.620
615.614	-1.520
615.873	1.780
616.133	-1.620
616.393	-0.800
616.652	0.180
616.912	0.340
617.171	3.600
617.431	0.700
617.691	1.440
617.950	-1.340
618.210	-0.500
618.469	2.280
618.729	2.520
618.989	0.640
619.248	1.440
619.508	-0.320
619.767	0.200
620.027	1.460
620.286	2.100
620.546	-1.560
620.805	-0.200
621.065	2.140
621.324	-2.480
621.584	-0.740
621.843	1.560
622.103	-0.460
622.362	-0.560
622.622	-1.380
622.881	0.240
623.140	0.340
623.400	-1.760
623.659	2.520
623.919	-2.820
624.178	1.820
624.437	3.300
624.697	-0.300
624.956	-1.840
625.216	-1.520
625.475	3.440
625.734	-0.480
625.994	-0.600
626.253	-2.660
626.512	1.220
626.772	1.680
627.031	1.800
627.290	-0.780
627.550	2.380
627.809	-1.720
628.068	1.180
628.327	-1.760
628.587	1.200
628.846	-1.900
629.105	0.460
629.364	0.520
629.624	-2.180
629.883	0.180
630.142	-2.280
630.401	-0.720
630.661	2.560
630.920	1.580
631.179	2.540
631.438	-0.600
631.697	1.700
631.957	-0.580
632.216	2.220
632.475	0.260
632.734	-1.520
632.993	2.420
633.252	-0.560
633.511	-1.780
633.770	2.040
634.030	2.120
634.289	0.180
634.548	-0.700
634.807	1.320
635.066	2.200
635.325	2.560
635.584	-0.580
635.843	1.240
636.102	-0.700
636.361	2.160
636.620	2.380
636.879	1.100
637.138	-1.200
637.397	1.920
637.656	-0.560
637.915	0.420
638.174	-0.740
638.433	1.940
638.692	-0.860
638.951	-0.940
639.210	1.460
639.469	-2.840
639.728	0.240
639.987	-0.900
640.246	-1.940
640.505	0.100
640.764	1.400
641.023	-1.820
641.282	1.060
641.540	-0.140
641.799	2.060
642.058	5.180
642.317	2.020
642.576	-0.040
642.835	3.420
643.094	1.080
643.352	1.360
643.611	0.500
643.870	0.080
644.129	1.040
644.388	0.740
644.646	-1.040
644.905	0.900
645.164	2.360
645.423	3.300
645.682	4.040
645.940	-1.980
646.199	2.040
646.458	3.160
646.716	1.440
646.975	2.100
647.234	-1.200
647.493	1.860
647.751	1.520
648.010	2.080
648.269	-2.020
648.527	0.820
648.786	-1.480
649.045	2.060
649.303	2.220
649.562	3.140
649.821	0.100
650.079	-0.920
650.338	3.260
650.597	-1.960
650.855	2.200
651.114	2.160
651.372	2.220
651.631	-0.220
651.890	-0.700
652.148	-0.440
652.407	-3.380
652.665	-0.800
652.924	-3.800
653.182	-6.960
653.441	-4.560
653.699	-4.840
653.958	-4.980
654.216	0.180
654.475	20.560
654.733	71.240
654.992	194.480
655.250	509.140
655.509	1078.180
655.767	1574.140
656.026	2546.240
656.284	4864.560
656.543	5399.520
656.801	3308.940
657.059	1536.800
657.318	696.660
657.576	313.320
657.835	139.440
658.093	62.480
658.351	20.600
658.610	2.860
658.868	-4.220
659.127	-3.360
659.385	-5.560
659.643	-1.420
659.902	-0.260
660.160	-1.280
660.418	1.420
660.677	-1.340
660.935	-2.260
661.193	2.940
661.452	0.700
661.710	-0.540
661.968	1.120
662.226	2.880
662.485	-0.500
662.743	2.260
663.001	0.820
663.259	-0.140
663.518	-3.000
663.776	1.860
664.034	-1.100
664.292	2.380
664.550	1.320
664.809	1.320
665.067	0.000
665.325	1.240
665.583	2.300
665.841	-0.880
666.099	1.320
666.358	-1.020
666.616	1.200
666.874	1.960
667.132	-1.160
667.390	0.400
667.648	2.180
667.906	5.220
668.164	1.480
668.423	-0.120
668.681	-1.240
668.939	1.240
669.197	-2.820
669.455	-0.940
669.713	-3.440
669.971	1.020
670.229	-0.700
670.487	2.080
670.745	-0.040
671.003	2.240
671.261	-1.620
671.519	2.120
671.777	-0.820
672.035	0.140
672.293	0.360
672.551	1.660
672.809	1.460
673.067	-0.820
673.325	-1.940
673.583	0.380
673.841	-0.820
674.099	3.240
674.356	0.600
674.614	1.160
674.872	-0.760
675.130	-1.020
675.388	0.700
675.646	-0.320
675.904	0.820
676.162	1.740
676.419	0.380
676.677	-1.060
676.935	3.520
677.193	-1.620
677.451	-3.160
677.709	-1.700
677.966	1.240
678.224	-0.840
678.482	0.500
678.740	0.160
678.998	4.420
679.255	-2.260
679.513	1.280
679.771	0.060
680.029	1.960
680.286	2.200
680.544	-1.820
680.802	1.300
681.059	2.260
681.317	-2.780
681.575	-2.660
681.833	-1.780
682.090	0.060
682.348	3.340
682.606	1.580
682.863	-1.600
683.121	2.140
683.379	-0.860
683.636	-0.640
683.894	-0.160
684.151	0.220
684.409	-0.780
684.667	0.340
684.924	-0.140
685.182	1.200
685.439	0.260
685.697	-1.460
685.955	2.460
686.212	1.540
686.470	1.080
686.727	1.560
686.985	-0.220
687.242	-1.000
687.500	0.640
687.757	0.200
688.015	0.160
688.272	2.360
688.530	0.780
688.787	-0.660
689.045	2.080
689.302	2.020
689.560	-1.680
689.817	0.980
690.075	0.040
690.332	2.760
690.589	-0.800
690.847	1.140
691.104	3.040
691.362	1.580
691.619	1.400
691.876	1.340
692.134	2.800
692.391	-2.920
692.649	2.080
692.906	1.320
693.163	-0.440
693.421	1.500
693.678	-1.400
693.935	1.340
694.193	0.540
694.450	-1.400
694.707	1.900
694.965	1.140
695.222	-1.040
695.479	2.040
695.736	3.660
695.994	2.300
696.251	0.380
696.508	-2.380
696.765	-1.500
697.023	0.320
697.280	3.300
697.537	-0.080
697.794	-2.900
698.052	1.680
698.309	5.540
698.566	1.640
698.823	2.220
699.080	0.760
699.338	1.100
699.595	1.740
699.852	-1.080
700.109	0.380
700.366	1.580
700.623	-0.100
700.880	0.140
701.137	-1.760
701.395	-0.560
701.652	-0.680
701.909	1.400
702.166	1.260
702.423	-0.500
702.680	-0.220
702.937	0.580
703.194	1.680
703.451	0.240
703.708	1.200
703.965	0.260
704.222	-0.600
704.479	-0.660
704.736	0.560
704.993	0.160
705.250	-0.760
705.507	0.260
705.764	1.800
706.021	0.540
706.278	-0.960
706.535	1.320
706.792	3.040
707.049	0.520
707.306	0.620
707.563	-0.900
707.820	2.240
708.077	-0.440
708.334	-0.540
708.591	2.600
708.847	1.180
709.104	-0.480
709.361	1.380
709.618	0.500
709.875	1.420
710.132	2.300
710.389	-0.440
710.645	0.100
710.902	-1.460
711.159	3.160
711.416	1.700
711.673	-1.820
711.930	3.780
712.186	0.500
712.443	-1.420
712.700	0.840
712.957	3.580
713.213	-1.700
713.470	2.640
713.727	3.300
713.984	-0.760
714.240	2.480
714.497	2.940
714.754	0.440
715.011	0.420
715.267	-0.460
715.524	-0.480
715.781	-0.500
716.037	-0.620
716.294	1.460
716.551	0.800
716.807	2.440
717.064	2.920
717.321	-0.580
717.577	1.160
717.834	3.480
718.090	-0.700
718.347	1.580
718.604	0.900
718.860	1.720
719.117	2.360
719.373	-1.000
719.630	2.520
719.886	0.720
720.143	-3.600
720.400	-1.820
720.656	2.720
720.913	2.540
721.169	-1.200
721.426	-0.260
721.682	-1.560
721.939	0.580
722.195	1.600
722.452	0.120
722.708	2.700
722.965	-1.740
723.221	3.020
723.478	0.500
723.734	4.800
723.990	1.560
724.247	0.720
724.503	2.980
724.760	0.640
725.016	1.540
725.273	-0.220
725.529	3.220
725.785	1.880
726.042	0.260
726.298	1.440
726.554	2.180
726.811	-0.620
727.067	0.260
727.323	2.800
727.580	0.900
727.836	-1.380
728.092	2.680
728.349	3.260
728.605	-1.740
728.861	0.560
729.118	-2.660
729.374	2.140
729.630	3.900
729.886	-0.240
730.143	1.940
730.399	-1.160
730.655	-0.620
730.911	2.800
731.168	-2.560
731.424	2.340
731.680	3.560
731.936	0.280
732.193	1.320
732.449	1.620
732.705	1.520
732.961	0.400
733.217	1.220
733.473	3.540
733.730	1.580
733.986	-2.460
734.242	1.680
734.498	2.820
734.754	0.000
735.010	1.420
735.266	-0.460
735.522	2.940
735.778	2.500
736.035	0.720
736.291	-1.660
736.547	2.580
736.803	-2.840
737.059	-2.160
737.315	2.400
737.571	1.740
737.827	1.620
738.083	-2.460
738.339	0.660
738.595	0.520
738.851	2.440
739.107	2.120
739.363	-0.560
739.619	-0.660
739.875	1.660
740.131	0.800
740.387	1.640
740.643	-1.160
740.899	1.540
741.155	-0.400
741.411	1.500
741.666	-1.420
741.922	-1.260
742.178	1.860
742.434	2.320
742.690	-0.040
742.946	1.240
743.202	0.720
743.458	-0.020
743.714	0.620
743.969	-0.040
744.225	2.900
744.481	1.720
744.737	-1.340
744.993	1.660
745.249	-0.660
745.504	-0.380
745.760	-1.060
746.016	0.500
746.272	2.600
746.527	0.540
746.783	0.480
747.039	-0.440
747.295	2.460
747.550	1.700
747.806	-0.440
748.062	0.560
748.318	3.340
748.573	0.400
748.829	1.700
749.085	0.540
749.340	-3.240
749.596	5.100
749.852	0.760
750.108	-0.240
750.363	2.520
750.619	1.620
750.874	2.540
751.130	1.080
751.386	-2.600
751.641	-0.400
751.897	1.540
752.153	2.200
752.408	-0.160
752.664	-2.280
752.919	0.200
753.175	0.740
753.430	1.620
753.686	-2.740
753.942	3.040
754.197	-2.580
754.453	1.740
754.708	0.380
754.964	-2.360
755.219	1.340
755.475	-2.480
755.730	-0.260
755.986	0.380
756.241	-0.620
756.497	-1.340
756.752	-0.640
757.008	0.820
757.263	2.600
757.519	2.400
757.774	-0.380
758.029	2.760
758.285	1.040
758.540	-1.520
758.796	3.440
759.051	-0.120
759.307	-0.600
759.562	-3.240
759.817	-1.460
760.073	-1.640
760.328	0.540
760.583	3.840
760.839	0.160
761.094	0.840
761.349	-1.620
761.605	-0.160
761.860	2.460
762.115	0.500
762.371	-2.480
762.626	-0.380
762.881	0.520
763.137	-0.640
763.392	-0.720
763.647	-1.380
763.902	-0.480
764.158	0.540
764.413	1.540
764.668	0.500
764.923	0.640
765.179	0.860
765.434	-1.560
765.689	3.060
765.944	0.900
766.199	0.160
766.455	-1.480
766.710	-1.520
766.965	0.580
767.220	1.540
767.475	-2.420
767.730	-2.520
767.985	1.420
768.241	3.680
768.496	0.600
768.751	1.400
769.006	1.380
769.261	0.740
769.516	0.500
769.771	1.660
770.026	-1.600
770.281	0.480
770.536	1.620
770.791	-0.440
771.047	-2.720
771.302	-2.920
771.557	3.200
771.812	0.300
772.067	1.660
772.322	0.620
772.577	0.240
772.832	0.520
773.087	0.740
773.342	-1.640
773.597	0.660
773.852	-0.700
774.107	-0.380
774.361	2.120
774.616	-0.540
774.871	-1.740
775.126	-1.180
775.381	0.540
775.636	-0.300
775.891	0.360
776.146	-0.200
776.401	-0.480
776.656	-1.540
776.911	-0.640
777.165	-0.900
777.420	-4.060
777.675	-4.060
777.930	-3.380
778.185	-6.600
778.440	2.560
778.694	1.220
778.949	-0.620
779.204	1.400
779.459	2.280
779.714	0.120
779.968	0.760
780.223	1.440
780.478	-0.840
780.733	0.380
780.988	-0.460
781.242	-0.180
781.497	-0.660
781.752	-1.420
782.006	2.660
782.261	0.540
782.516	0.120
782.771	1.440
783.025	-0.400
783.280	2.200
783.535	-1.480
783.789	-0.460
784.044	-0.980
784.299	0.180
784.553	0.800
784.808	-0.320
785.063	0.560
785.317	3.560
785.572	0.360
785.826	0.420
786.081	-1.040
786.336	-0.940
786.590	-1.780
786.845	-3.900
787.099	2.220
787.354	-1.120
787.609	3.140
787.863	2.220
788.118	0.160
788.372	-0.920
788.627	2.380
788.881	1.360
789.136	-1.620
789.390	-2.620
789.645	2.380
789.899	2.120
790.154	0.200
790.408	-0.920
790.663	-0.620
790.917	3.040
791.172	-0.340
791.426	1.300
791.680	-1.860
791.935	0.520
792.189	0.140
792.444	2.320
792.698	-1.860
792.953	2.500
793.207	-1.460
793.461	1.100
793.716	0.260
793.970	0.580
794.224	-2.620
794.479	2.600
794.733	1.480
794.987	1.900
795.242	2.720
795.496	1.080
795.750	-1.800
796.005	0.080
796.259	1.240
796.513	-0.160
796.768	2.420
797.022	0.280
797.276	0.160
797.530	-0.600
797.785	-0.640
798.039	0.580
798.293	0.160
798.547	1.180
798.802	0.560
799.056	-1.840
799.310	1.220
799.564	0.860
799.819	2.120
800.073	-0.240
800.327	-0.620
800.581	0.080
800.835	-0.540
801.089	1.340
801.344	2.360
801.598	1.400
801.852	1.980
802.106	1.040
802.360	1.880
802.614	0.720
802.868	-0.100
803.122	0.660
803.377	1.500
803.631	-1.780
803.885	2.160
804.139	-0.360
804.393	0.480
804.647	4.360
804.901	1.120
805.155	1.460
805.409	-1.720
805.663	-0.940
805.917	-0.700
806.171	-0.960
806.425	0.400
806.679	-0.560
806.933	0.280
807.187	1.420
807.441	1.200
807.695	-1.680
807.949	0.960
808.203	0.960
808.457	1.180
808.711	-0.540
808.965	0.080
809.219	-1.200
809.473	0.520
809.726	-4.000
809.980	0.040
810.234	0.440
810.488	2.180
810.742	-0.540
810.996	0.500
811.250	0.600
811.504	1.660
811.757	1.880
812.011	-0.880
812.265	0.120
812.519	-2.620
812.773	1.840
813.027	1.500
813.280	3.080
813.534	1.480
813.788	1.060
814.042	2.320
814.295	2.480
814.549	1.280
814.803	2.920
815.057	1.260
815.310	0.220
815.564	-3.020
815.818	-2.140
816.072	1.440
816.325	2.200
816.579	-0.740
816.833	-1.020
817.086	1.580
817.340	2.360
817.594	1.600
817.848	-0.860
818.101	1.560
818.355	0.260
818.608	-0.220
818.862	-1.860
819.116	-3.440
819.369	-0.980
819.623	0.400
819.877	-1.540
820.130	3.500
820.384	1.280
820.637	-2.020
820.891	5.520
821.144	-1.980
821.398	-0.660
821.652	0.180
821.905	1.480
822.159	3.020
822.412	1.380
822.666	-1.620
822.919	-0.340
823.173	-0.200
823.426	-0.620
823.680	-1.000
823.933	-2.720
824.187	-1.580
824.440	-0.960
824.694	-1.820
824.947	1.720
825.201	-3.040
825.454	1.380
825.707	1.080
825.961	-0.680
826.214	2.320
826.468	-1.020
826.721	2.240
826.975	-0.500
827.228	1.240
827.481	0.340
827.735	-0.580
827.988	0.320
828.241	-1.660
828.495	0.140
828.748	2.180
829.001	0.500
829.255	1.600
829.508	1.180
829.761	2.540
830.015	-1.540
830.268	0.840
830.521	-0.820
830.775	-2.500
831.028	-0.460
831.281	-1.900
831.534	-2.960
831.788	0.300
832.041	1.320
832.294	0.440
832.547	-1.680
832.801	-0.520
833.054	0.360
833.307	0.520
833.560	0.220
833.813	-2.000
834.067	-3.020
834.320	1.380
834.573	0.320
834.826	0.160
835.079	0.180
835.332	-0.640
835.586	2.500
835.839	-0.540
836.092	-1.540
836.345	2.260
836.598	-1.140
836.851	-0.300
837.104	4.140
837.357	-0.820
837.611	-1.400
837.864	0.200
838.117	-1.240
838.370	0.460
838.623	-1.980
838.876	0.800
839.129	-0.900
839.382	0.420
839.635	2.720
839.888	0.160
840.141	1.500
840.394	1.300
840.647	3.100
840.900	0.380
841.153	0.400
841.406	1.240
841.659	1.000
841.912	0.080
842.165	-0.840
842.418	3.380
842.671	3.320
842.924	1.160
843.176	0.260
843.429	-1.120
843.682	0.260
843.935	2.380
844.188	1.140
844.441	2.560
844.694	3.340
844.947	3.480
845.200	-0.980
845.452	-1.660
845.705	1.020
845.958	0.260
846.211	-0.940
846.464	0.820
846.717	1.380
846.969	0.340
847.222	3.220
847.475	-0.320
847.728	0.400
847.981	-0.260
848.233	0.960
848.486	0.260
848.739	-2.700
848.992	-0.820
849.244	0.420
849.497	-0.740
849.750	0.260
850.003	-3.100
850.255	0.460
850.508	-0.260
850.761	0.240
851.013	-0.780
851.266	3.720
851.519	0.360
851.771	-1.520
852.024	2.200
852.277	1.380
852.529	-0.560
852.782	2.360
853.035	-1.660
853.287	0.160
853.540	0.200
853.792	0.160
854.045	-1.560
854.298	-1.640
854.550	0.760
854.803	-1.660
855.055	-1.460
855.308	-0.840
855.560	0.120
855.813	-0.520
856.066	0.280
856.318	-0.360
856.571	1.900
856.823	-0.740
857.076	1.680
857.328	-0.880
857.581	-0.640
857.833	-1.520
858.086	2.420
858.338	0.360
858.591	0.100
858.843	0.460
859.095	-1.200
859.348	1.240
859.600	-1.800
859.853	-0.200
860.105	-0.340
860.358	0.100
860.610	-0.680
860.862	-0.040
861.115	-0.620
861.367	3.460
861.620	0.440
861.872	-0.020
862.124	-0.460
862.377	-1.520
862.629	0.560
862.881	-0.660
863.134	0.760
863.386	-0.660
863.638	-2.500
863.891	2.700
864.143	2.540
864.395	2.440
864.648	-0.260
864.900	0.260
865.152	1.540
865.404	0.320
865.657	2.640
865.909	2.080
866.161	1.740
866.413	2.420
866.666	3.680
866.918	-0.700
867.170	2.200
867.422	-0.560
867.674	2.460
867.927	1.180
868.179	1.460
868.431	-1.520
868.683	-1.360
868.935	1.560
869.187	1.500
869.440	1.660
869.692	1.240
869.944	-0.960
870.196	3.640
870.448	-0.100
870.700	1.860
870.952	-1.520
871.204	1.300
871.457	-2.860
871.709	0.340
871.961	1.320
872.213	2.800
872.465	-1.720
872.717	0.160
872.969	-0.040
873.221	-0.360
873.473	1.340
873.725	-0.740
873.977	0.340
874.229	-0.360
874.481	-1.800
874.733	0.460
874.985	-1.240
875.237	2.200
875.489	-1.880
875.741	1.420
875.993	0.340
876.245	0.260
876.497	-0.240
876.749	-1.960
877.001	-0.960
877.253	1.260
877.504	0.620
877.756	0.820
878.008	0.420
878.260	1.600
878.512	-0.680
878.764	-0.420
879.016	0.560
879.268	1.380
879.519	1.320
879.771	0.480
880.023	2.320
880.275	3.760
880.527	2.820
880.779	-2.220
881.030	2.440
881.282	1.440
881.534	-2.440
881.786	0.420
882.038	0.380
882.289	-1.340
882.541	1.620
882.793	-0.320
883.045	1.540
883.296	-2.560
883.548	1.700
883.800	1.720
884.052	-2.740
884.303	-0.360
884.555	0.460
884.807	1.900
885.058	1.280
885.310	-2.260
885.562	-0.560
885.813	1.760
886.065	-0.200
886.317	2.880
886.568	1.500
886.820	0.560
887.072	0.240
887.323	0.700
887.575	2.820
887.826	-1.720
888.078	0.560
888.330	-0.720
888.581	0.760
888.833	2.240
889.084	3.280
889.336	-0.600
889.587	-0.580
889.839	-2.580
890.091	1.480
890.342	0.460
890.594	-0.380
890.845	-0.360
891.097	-1.060
891.348	3.700
891.600	5.720
891.851	-0.640
892.103	2.540
892.354	-1.440
892.606	0.300
892.857	-2.240
893.108	-0.300
893.360	1.560
893.611	1.780
893.863	1.460
894.114	-2.740
894.366	0.420
894.617	-0.300
894.868	1.280
895.120	2.520
895.371	-0.240
895.623	-0.420
895.874	-0.380
896.125	-1.660
896.377	0.200
896.628	0.700
896.879	-0.380
897.131	0.160
897.382	-1.380
897.633	0.200
897.885	1.400
898.136	1.580
898.387	1.600
898.639	2.180
898.890	-0.800
899.141	2.880
899.392	-1.760
899.644	1.620
899.895	1.620
900.146	-0.640
900.397	2.620
900.649	-1.520
900.900	0.800
901.151	0.560
901.402	-2.460
901.653	2.180
901.905	1.320
902.156	-0.920
902.407	-0.820
902.658	1.740
902.909	0.880
903.160	3.580
903.412	1.580
903.663	1.700
903.914	-0.260
904.165	-1.440
904.416	-0.420
904.667	1.700
904.918	0.340
905.169	0.920
905.421	-1.520
905.672	-0.660
905.923	-0.520
906.174	0.380
906.425	-2.500
906.676	0.420
906.927	0.220
907.178	-0.660
907.429	1.220
907.680	-0.340
907.931	-0.720
908.182	-0.380
908.433	1.580
908.684	-0.620
908.935	2.220
909.186	-0.620
909.437	-2.480
909.688	-1.420
909.939	2.040
910.190	1.520
910.441	2.980
910.692	-0.360
910.943	-1.800
911.194	0.740
911.445	2.820
911.695	1.340
911.946	2.320
912.197	1.520
912.448	-0.380
912.699	0.580
912.950	1.920
913.201	1.360
913.452	0.500
913.702	-2.800
913.953	-2.760
914.204	1.660
914.455	-2.380
914.706	3.280
914.957	3.620
915.207	-1.760
915.458	3.480
915.709	2.340
915.960	1.400
916.210	-0.640
916.461	0.500
916.712	2.420
916.963	1.800
917.213	0.140
917.464	1.500
917.715	-1.500
917.966	-0.540
918.216	1.580
918.467	-0.560
918.718	0.600
918.969	2.420
919.219	2.600
919.470	0.220
919.721	-1.100
919.971	0.440
920.222	-0.040
920.473	0.560
920.723	1.800
920.974	-1.620
921.224	0.380
921.475	-0.580
921.726	-2.400
921.976	2.620
922.227	1.360
922.477	0.840
922.728	-3.160
922.979	-1.380
923.229	2.460
923.480	1.340
923.730	-1.540
923.981	-1.640
924.231	0.860
924.482	1.220
924.732	-0.700
924.983	0.620
925.233	-1.040
925.484	-0.140
925.734	2.660
925.985	0.560
926.235	0.320
926.486	-0.700
926.736	1.720
926.987	2.320
927.237	0.960
927.488	-0.500
927.738	1.420
927.989	2.420
928.239	1.620
928.489	1.360
928.740	-0.640
928.990	0.720
929.241	-0.600
929.491	-0.240
929.741	0.320
929.992	3.480
930.242	0.520
930.492	1.300
930.743	-0.720
930.993	1.360
931.243	1.080
931.494	0.140
931.744	1.340
931.994	-1.580
932.245	-1.620
932.495	0.380
932.745	-0.740
932.996	1.680
933.246	1.080
933.496	1.940
933.746	0.340
933.997	3.020
934.247	-1.840
934.497	0.480
934.747	3.660
934.998	-2.640
935.248	1.360
935.498	2.420
935.748	0.600
935.998	-2.480
936.249	0.740
936.499	2.540
936.749	0.260
936.999	0.400
937.249	-1.140
937.499	0.080
937.750	0.000
938.000	0.500
938.250	-1.840
938.500	1.460
938.750	1.340
939.000	1.780
939.250	-1.740
939.500	3.280
939.750	0.980
940.000	3.000
940.251	-0.480
940.501	2.920
940.751	1.180
941.001	1.360
941.251	-0.620
941.501	0.620
941.751	1.060
942.001	1.580
942.251	-0.920
942.501	2.460
942.751	-4.300
943.001	-0.240
943.251	-0.780
943.501	1.180
943.751	-0.520
944.001	0.640
944.251	0.640
944.501	-1.420
944.751	1.580
945.000	-0.420
945.250	-1.240
945.500	-1.560
945.750	-0.680
946.000	0.120
946.250	1.560
946.500	-1.940
946.750	0.620
947.000	2.340
947.249	0.200
947.499	2.720
947.749	0.540
947.999	2.820
948.249	-2.680
948.499	0.360
948.749	-0.700
948.998	-0.520
949.248	1.160
949.498	-0.640
949.748	2.100
949.997	2.000
950.247	-2.740
950.497	2.800
950.747	1.340
950.997	3.320
951.246	1.400
951.496	0.560
951.746	1.660
951.995	-0.940
952.245	-0.520
952.495	1.160
952.745	3.140
952.994	-3.000
953.244	1.380
953.494	1.320
953.743	2.460
953.993	0.780
954.243	-1.480
954.492	-0.220
954.742	2.100
954.992	0.400
955.241	1.020
955.491	-0.460
955.740	-1.700
955.990	1.660
956.240	1.520
956.489	-0.100
956.739	1.720
956.988	-0.120
957.238	-2.200
957.488	-2.000
957.737	0.660
957.987	-1.360
958.236	-0.400
958.486	-0.640
958.735	2.160
958.985	0.740
959.234	1.140
959.484	1.340
959.733	-1.400
959.983	0.240
960.232	2.280
960.482	-1.760
960.731	-0.300
960.981	1.720
961.230	-2.060
961.480	-2.220
961.729	-2.520
961.978	-1.380
962.228	-1.420
962.477	2.160
962.727	-1.660
962.976	-1.100
963.226	1.480
963.475	0.480
963.724	0.580
963.974	-1.020
964.223	0.480
964.472	-1.800
964.722	2.600
964.971	-0.540
965.220	-1.400
965.470	-1.500
965.719	0.400
965.968	1.500
966.218	-1.500
966.467	0.580
966.716	-1.900
966.966	0.320
967.215	-1.440
967.464	0.440
967.713	0.440
967.963	-0.880
968.212	-1.140
968.461	3.860
968.710	-0.920
968.960	1.160
969.209	-1.580
969.458	0.420
969.707	-1.660
969.956	-1.420
970.206	-1.940
970.455	1.240
970.704	0.340
970.953	0.380
971.202	-0.540
971.451	-1.260
971.701	2.180
971.950	0.420
972.199	-0.700
972.448	0.120
972.697	-2.980
972.946	2.580
973.195	2.500
973.444	-1.060
973.694	2.420
973.943	-0.460
974.192	1.220
974.441	-0.380
974.690	0.120
974.939	-0.580
975.188	0.180
975.437	-1.880
975.686	1.080
975.935	-0.640
976.184	0.500
976.433	1.900
976.682	-1.880
976.931	0.180
977.180	2.480
977.429	1.360
977.678	-0.660
977.927	-0.680
978.176	2.500
978.425	-0.600
978.674	2.580
978.923	-0.940
979.172	-0.580
979.421	1.300
979.670	1.720
979.918	0.480
980.167	-0.160
980.416	-0.380
980.665	-2.900
980.914	-1.360
981.163	-0.540
981.412	0.320
981.661	-1.840
981.909	-0.860
982.158	-3.700
982.407	-2.900
982.656	1.740
982.905	1.820
983.154	-0.500
983.402	-0.860
983.651	-1.700
983.900	1.400
984.149	2.520
984.398	1.320
984.646	2.280
984.895	-0.880
985.144	3.460
985.393	1.380
985.641	-0.280
985.890	0.280
986.139	1.060
986.387	0.980
986.636	-1.460
986.885	-0.580
987.134	-1.640
987.382	1.280
987.631	-2.020
987.880	2.580
988.128	2.020
988.377	-1.600
988.626	-0.580
988.874	-1.380
989.123	1.280
989.372	-1.060
989.620	2.160
989.869	-1.700
990.117	-0.380
990.366	-1.480
990.615	0.260
990.863	0.780
991.112	-0.820
991.360	0.640
991.609	0.300
991.857	0.280
992.106	1.280
992.355	-0.520
992.603	3.200
992.852	0.580
993.100	1.300
993.349	-0.620
993.597	1.220
993.846	-0.340
994.094	2.220
994.343	1.560
994.591	0.320
994.840	1.360
995.088	0.400
995.336	-2.720
995.585	0.340
995.833	-1.540
996.082	-0.460
996.330	-0.580
996.579	1.360
996.827	1.500
997.075	-2.020
997.324	0.120
997.572	0.380
997.821	3.220
998.069	-0.800
998.317	3.340
998.566	0.720
998.814	1.820
999.062	-1.020
999.311	0.240
999.559	-0.660
999.807	-0.900
1000.056	-2.380
1000.304	-1.680
1000.552	0.360
1000.801	3.300
1001.049	1.060
1001.297	2.460
1001.546	0.260
1001.794	1.520
1002.042	1.120
1002.290	-1.940
1002.539	1.680
1002.787	-0.940
1003.035	-1.600
1003.283	1.320
1003.531	2.520
1003.780	1.460
1004.028	0.560
1004.276	4.640
1004.524	1.380
1004.772	0.660
1005.021	2.320
1005.269	1.500
1005.517	1.660
1005.765	1.380
1006.013	1.520
1006.261	-0.500
1006.509	0.240
1006.758	0.720
1007.006	3.200
1007.254	0.200
1007.502	0.620
1007.750	-1.420
1007.998	-2.220
1008.246	-1.600
1008.494	1.500
1008.742	-1.900
1008.990	0.360
1009.238	1.020
1009.486	0.120
1009.735	-1.740
1009.983	2.040
1010.231	-1.720
1010.479	1.220
1010.727	-1.420
1010.975	-1.540
1011.223	0.780
1011.471	-0.960
1011.719	-2.560
1011.967	-1.420
1012.214	1.720
1012.462	-1.140
1012.710	0.720
1012.958	-0.480
1013.206	0.300
1013.454	0.640
1013.702	0.300
1013.950	-0.320
1014.198	0.400
1014.446	-1.960
1014.694	2.520
1014.942	-0.440
1015.189	2.420
1015.437	1.300
1015.685	-0.260
1015.933	-0.420
1016.181	3.560
1016.429	0.320
1016.677	1.380
1016.924	1.000
1017.172	1.580
1017.420	-1.740
1017.668	1.300
1017.916	-1.560
1018.163	-1.640
1018.411	2.660
1018.659	2.800
1018.907	2.680
1019.155	-0.700
1019.402	1.120
1019.650	1.420
1019.898	-0.560
1020.145	0.780
1020.393	2.440
1020.641	0.240
1020.889	0.240
1021.136	-0.180
1021.384	-1.520
1021.632	0.420
1021.879	1.040
1022.127	2.360
1022.375	-1.440
1022.622	0.480
1022.870	-0.060
1023.118	2.520
1023.365	0.440
1023.613	0.300
1023.861	-0.600
1024.108	0.220
1024.356	-0.480
1024.603	-1.660
1024.851	3.460
1025.099	3.260
1025.346	1.680
1025.594	-0.380
1025.841	3.620
1026.089	1.360
1026.336	-0.540
1026.584	-0.100
1026.832	1.360
1027.079	1.500
1027.327	1.520
1027.574	2.660
1027.822	0.760
1028.069	0.860
1028.317	0.420
1028.564	0.440
1028.812	-1.220
1029.059	-1.460
1029.306	2.740
1029.554	-0.340
1029.801	1.780
1030.049	-0.300
1030.296	1.840
1030.544	-1.520
1030.791	-0.240
1031.039	-0.400
1031.286	-0.680
1031.533	0.560
1031.781	-0.420
1032.028	1.760
1032.276	1.360
1032.523	-1.960
1032.770	1.440
1033.018	-1.400
1033.265	2.040
1033.512	1.460
1033.760	-1.560
1034.007	0.660
1034.254	-0.380
1034.502	2.120
1034.749	-0.760
1034.996	1.560
1035.243	-3.480
1035.491	3.660
1035.738	-1.500
1035.985	0.980
1036.233	1.860
1036.480	-0.600
1036.727	1.340
1036.974	2.560
1037.222	0.760
1037.469	-1.900
1037.716	-1.580
1037.963	0.720
1038.210	-0.960
1038.458	4.820
1038.705	-0.440
1038.952	2.580
1039.199	0.500
1039.446	0.820
1039.693	0.000
1039.941	-0.420
1040.188	0.660
1040.435	-2.400
1040.682	1.900
1040.929	-1.580
1041.176	1.340
1041.423	1.900
1041.671	-2.240
1041.918	2.440
1042.165	0.400
1042.412	0.320
1042.659	2.320
1042.906	1.240
1043.153	4.260
1043.400	1.440
1043.647	-1.380
1043.894	1.500
1044.141	-0.680
1044.388	1.740
1044.635	-3.200
1044.882	1.520
1045.129	-2.260
1045.376	2.920
1045.623	-1.220
1045.870	2.280
1046.117	-0.180
1046.364	2.180
1046.611	0.280
1046.858	-2.720
1047.105	3.380
1047.352	2.420
1047.599	2.040
1047.846	-0.400
1048.093	2.760
1048.340	1.340
1048.587	0.420
1048.833	-0.120
1049.080	-3.300
1049.327	-1.960
1049.574	-0.480
1049.821	2.820
1050.068	1.540
1050.315	-2.080
1050.561	2.580
1050.808	3.220
1051.055	-0.320
1051.302	-1.780
1051.549	0.240
1051.796	1.580
1052.042	1.460
1052.289	-3.580
1052.536	-0.020
1052.783	1.120
1053.030	-1.440
1053.276	-0.360
1053.523	1.560
1053.770	1.320
1054.017	1.740
1054.263	-1.340
1054.510	1.740
1054.757	-0.340
1055.003	-0.500
1055.250	2.820
1055.497	-0.380
1055.744	0.700
1055.990	-0.420
1056.237	0.980
1056.484	3.620
1056.730	-0.080
1056.977	1.240
1057.224	1.780
1057.470	-0.400
1057.717	-1.440
1057.963	2.760
1058.210	0.180
1058.457	3.720
1058.703	0.300
1058.950	2.920
1059.197	1.400
1059.443	-0.360
1059.690	-1.560
1059.936	1.520
1060.183	2.820
1060.429	0.580
1060.676	0.820
1060.922	0.580
1061.169	0.300
1061.416	1.520
1061.662	3.800
1061.909	-1.860
1062.155	-1.620
1062.402	1.380
1062.648	0.540
1062.895	0.560
1063.141	-0.200
1063.387	1.120
1063.634	0.620
1063.880	2.460
1064.127	2.900
1064.373	1.380
1064.620	1.760
1064.866	0.660
1065.113	-0.220
1065.359	2.380
1065.605	1.400
1065.852	0.400
1066.098	1.500
1066.345	0.580
1066.591	-0.360
1066.837	1.520
1067.084	-3.480
1067.330	1.220
1067.576	3.300
1067.823	-1.600
1068.069	0.700
1068.315	0.440
1068.562	-0.060
1068.808	2.820
1069.054	0.740
1069.301	0.620
1069.547	2.460
1069.793	1.420
1070.040	-0.040
1070.286	0.140
1070.532	0.600
1070.778	0.380
1071.025	3.460
1071.271	1.100
1071.517	-2.580
1071.763	1.800
1072.009	0.220
1072.256	0.620
1072.502	-0.560
1072.748	0.280
1072.994	-1.460
1073.240	1.260
1073.487	-0.400
1073.733	2.520
1073.979	1.500
1074.225	-1.800
1074.471	0.660
1074.717	-0.340
1074.964	2.660
1075.210	0.540
1075.456	-0.520
1075.702	2.260
1075.948	0.560
1076.194	1.720
1076.440	1.520
1076.686	-1.180
1076.932	0.540
1077.178	1.360
1077.425	-2.560
1077.671	1.140
1077.917	-0.040
1078.163	0.020
1078.409	1.620
1078.655	-1.780
1078.901	1.440
1079.147	0.720
1079.393	1.040
1079.639	-1.480
1079.885	-0.520
1080.131	1.500
1080.377	2.280
1080.623	1.460
1080.869	1.740
1081.115	0.680
1081.361	2.100
1081.606	1.800
1081.852	1.580
1082.098	3.400
1082.344	-0.700
1082.590	-0.720
1082.836	3.580
1083.082	0.040
1083.328	3.500
1083.574	2.300
1083.820	-0.560
1084.065	2.420
1084.311	-0.420
1084.557	0.600
1084.803	-1.600
1085.049	-0.400
1085.295	0.640
1085.541	-0.640
1085.786	-0.760
1086.032	-1.500
1086.278	0.300
1086.524	0.580
1086.770	0.420
1087.015	1.380
1087.261	-1.560
1087.507	1.580
1087.753	-0.400
1087.998	-0.720
1088.244	0.320
1088.490	0.340
1088.736	-0.660
1088.981	1.660
1089.227	0.600
1089.473	-0.440
1089.719	-1.520
1089.964	0.300
1090.210	1.320
1090.456	1.120
1090.701	1.200
1090.947	2.500
1091.193	-1.800
1091.438	0.360
1091.684	-1.760
1091.930	-0.440
1092.175	-0.540
1092.421	1.460
1092.666	-1.760
1092.912	-1.580
1093.158	-1.700
1093.403	2.280
1093.649	1.460
1093.894	-1.520
1094.140	-0.800
1094.386	0.440
1094.631	-2.560
1094.877	-1.560
1095.122	-2.540
1095.368	-0.620
1095.613	4.360
1095.859	-2.360
1096.104	-1.540
1096.350	1.540
1096.595	-0.040
1096.841	2.400
1097.086	0.200
1097.332	2.240
1097.577	-0.100
1097.823	2.620
1098.068	1.340
1098.314	-3.480
1098.559	-0.600
1098.805	-1.660
1099.050	0.540
1099.295	1.340
1099.541	2.260
1099.786	-0.780
+++++End Spectral Data+++++
