Spectrometer Data
EN
------------------------------
Saving Time:Thu, Jan 22, 2026 12:14:07
Device Name:Aurora 4000
Version Info:V9_84
Serial Number:220120190816098402001100
Integral Time(æs):4000
Avg Count:10
Smoothness:0
Data Type:(0 1)Wavelength-Delete Dark
X-Axis Unit:nm
Y-Axis Unit:counts
Pixel Count:3482
Reserve0:250
Other Description:
+++++Begin Spectral Data+++++
200.149	-0.200
200.421	-1.300
200.693	-1.900
200.966	2.000
201.238	-2.200
201.510	0.400
201.782	-1.500
202.054	0.500
202.326	0.100
202.598	-2.100
202.870	-1.000
203.142	3.100
203.414	-0.900
203.686	0.600
203.958	0.600
204.230	2.300
204.502	-1.000
204.774	0.300
205.046	1.000
205.318	-0.900
205.590	-2.400
205.861	0.000
206.133	2.100
206.405	-0.500
206.677	2.000
206.949	1.200
207.221	2.000
207.493	-0.500
207.765	1.700
208.037	-0.400
208.308	0.700
208.580	-1.900
208.852	0.900
209.124	2.800
209.396	2.000
209.668	0.400
209.939	2.900
210.211	1.000
210.483	0.200
210.755	-2.300
211.027	0.300
211.298	-2.100
211.570	-0.500
211.842	-3.000
212.114	2.600
212.385	1.200
212.657	0.000
212.929	2.200
213.200	-0.800
213.472	-1.900
213.744	3.200
214.016	0.100
214.287	-0.100
214.559	-1.500
214.831	-0.300
215.102	-0.600
215.374	0.000
215.645	2.600
215.917	1.400
216.189	-2.600
216.460	-1.600
216.732	1.100
217.004	0.100
217.275	3.200
217.547	-0.100
217.818	0.500
218.090	0.800
218.361	2.800
218.633	2.900
218.904	-2.700
219.176	0.000
219.448	1.400
219.719	-0.700
219.991	3.800
220.262	0.400
220.534	1.000
220.805	0.300
221.076	-2.300
221.348	1.200
221.619	-0.500
221.891	0.300
222.162	0.600
222.434	3.400
222.705	-1.000
222.977	3.400
223.248	-0.700
223.519	-0.800
223.791	-1.800
224.062	1.800
224.333	1.800
224.605	-0.300
224.876	1.300
225.148	-1.500
225.419	-2.300
225.690	1.100
225.962	1.800
226.233	-3.100
226.504	-2.400
226.775	1.300
227.047	-0.200
227.318	4.300
227.589	-1.300
227.861	0.300
228.132	1.100
228.403	0.700
228.674	-4.000
228.946	-1.600
229.217	0.200
229.488	0.400
229.759	0.700
230.030	0.900
230.302	-1.000
230.573	0.200
230.844	-2.300
231.115	-2.100
231.386	0.500
231.657	-0.300
231.929	-2.500
232.200	2.000
232.471	-1.100
232.742	3.000
233.013	1.100
233.284	-0.100
233.555	4.300
233.826	-2.400
234.097	0.000
234.369	-0.600
234.640	-2.200
234.911	0.500
235.182	-3.200
235.453	1.000
235.724	0.700
235.995	2.200
236.266	2.100
236.537	0.800
236.808	0.000
237.079	-1.000
237.350	-1.200
237.621	1.800
237.892	-1.700
238.163	-1.400
238.434	-1.100
238.705	-1.700
238.975	0.300
239.246	0.100
239.517	1.700
239.788	0.700
240.059	-0.400
240.330	-1.200
240.601	-2.700
240.872	-2.000
241.143	1.400
241.413	1.100
241.684	-1.400
241.955	0.000
242.226	1.800
242.497	-1.000
242.768	1.400
243.038	-3.100
243.309	-2.800
243.580	-1.800
243.851	0.100
244.122	-0.600
244.392	-1.000
244.663	-0.100
244.934	1.600
245.205	-0.700
245.475	-1.100
245.746	1.700
246.017	1.600
246.288	-0.700
246.558	-2.600
246.829	1.700
247.100	-2.900
247.370	0.200
247.641	-0.800
247.912	1.100
248.182	-0.500
248.453	-1.600
248.724	-2.800
248.994	0.600
249.265	-0.900
249.535	4.100
249.806	-1.200
250.077	0.200
250.347	-0.300
250.618	-2.000
250.888	0.900
251.159	-2.900
251.430	-0.300
251.700	2.800
251.971	-0.900
252.241	0.500
252.512	-5.000
252.782	-0.400
253.053	1.600
253.323	0.300
253.594	0.700
253.864	-1.200
254.135	1.800
254.405	-2.600
254.676	-0.400
254.946	-1.000
255.216	-3.800
255.487	-0.900
255.757	-1.100
256.028	-0.400
256.298	-1.800
256.569	1.100
256.839	-1.500
257.109	-0.800
257.380	0.900
257.650	0.700
257.920	1.600
258.191	0.500
258.461	-0.800
258.731	-0.600
259.002	-3.500
259.272	1.000
259.542	0.000
259.813	-2.600
260.083	1.200
260.353	-1.800
260.624	-1.100
260.894	-0.200
261.164	-2.100
261.434	-1.000
261.705	1.000
261.975	-3.100
262.245	1.100
262.515	0.900
262.786	-0.700
263.056	-2.500
263.326	0.600
263.596	-1.100
263.866	-0.400
264.137	0.400
264.407	0.900
264.677	-0.200
264.947	-2.000
265.217	1.000
265.487	1.300
265.757	-1.400
266.027	1.000
266.298	-4.300
266.568	0.100
266.838	1.500
267.108	-1.600
267.378	-0.200
267.648	1.300
267.918	2.700
268.188	-1.500
268.458	4.700
268.728	4.200
268.998	0.700
269.268	1.200
269.538	-0.300
269.808	0.400
270.078	1.800
270.348	-1.200
270.618	0.400
270.888	-0.300
271.158	1.200
271.428	0.000
271.698	0.500
271.968	-3.100
272.238	-1.600
272.508	1.400
272.778	0.000
273.048	2.200
273.318	-1.900
273.587	1.700
273.857	-2.200
274.127	1.500
274.397	-0.900
274.667	-1.900
274.937	0.100
275.207	-1.000
275.476	-1.900
275.746	-0.100
276.016	0.100
276.286	3.700
276.556	-0.900
276.826	0.300
277.095	-4.400
277.365	-0.300
277.635	-1.300
277.905	-2.300
278.174	-2.400
278.444	-2.000
278.714	0.700
278.984	1.200
279.253	1.800
279.523	0.600
279.793	0.300
280.062	0.600
280.332	-2.400
280.602	-0.400
280.871	-0.500
281.141	1.400
281.411	-0.500
281.680	0.200
281.950	2.400
282.220	0.700
282.489	-1.600
282.759	2.000
283.029	1.300
283.298	-0.700
283.568	-0.800
283.837	1.000
284.107	-1.400
284.376	-0.500
284.646	-0.100
284.916	1.000
285.185	1.500
285.455	0.000
285.724	-1.100
285.994	1.000
286.263	1.400
286.533	-1.300
286.802	1.500
287.072	-1.300
287.341	1.100
287.611	-1.200
287.880	-1.400
288.149	0.100
288.419	-0.200
288.688	1.700
288.958	0.100
289.227	1.600
289.497	2.100
289.766	1.800
290.035	-3.000
290.305	-2.400
290.574	2.100
290.844	3.400
291.113	2.600
291.382	1.100
291.652	-2.000
291.921	-0.200
292.190	-1.200
292.460	-0.100
292.729	-1.100
292.998	1.800
293.268	-0.400
293.537	-3.000
293.806	1.300
294.075	0.200
294.345	-4.200
294.614	3.100
294.883	-0.500
295.152	1.400
295.422	-0.100
295.691	0.600
295.960	0.400
296.229	-1.000
296.498	-2.400
296.768	-2.800
297.037	-0.700
297.306	0.500
297.575	-0.800
297.844	-0.500
298.114	-0.300
298.383	0.100
298.652	-1.400
298.921	1.200
299.190	-0.700
299.459	-0.600
299.728	0.100
299.997	-2.200
300.266	1.500
300.536	1.300
300.805	2.100
301.074	1.700
301.343	-0.200
301.612	-0.300
301.881	1.200
302.150	2.700
302.419	-3.500
302.688	-1.100
302.957	0.900
303.226	-0.600
303.495	-0.900
303.764	-3.100
304.033	1.300
304.302	0.000
304.571	0.600
304.840	-0.600
305.109	0.300
305.378	1.700
305.646	-3.200
305.915	3.700
306.184	-0.200
306.453	2.500
306.722	0.400
306.991	1.400
307.260	-0.300
307.529	1.100
307.798	1.200
308.066	-0.500
308.335	1.000
308.604	0.500
308.873	1.300
309.142	-0.800
309.411	0.700
309.679	-0.600
309.948	1.000
310.217	-0.400
310.486	-1.000
310.755	0.200
311.023	-0.800
311.292	1.500
311.561	-1.500
311.830	-1.900
312.098	0.100
312.367	3.300
312.636	-2.000
312.904	2.400
313.173	1.000
313.442	0.600
313.711	-0.200
313.979	-3.600
314.248	0.600
314.517	1.500
314.785	-0.900
315.054	-1.500
315.322	-1.100
315.591	-2.600
315.860	1.000
316.128	0.900
316.397	1.900
316.665	1.300
316.934	0.400
317.203	-1.700
317.471	-3.300
317.740	0.000
318.008	2.000
318.277	-0.800
318.545	-0.600
318.814	-0.900
319.082	2.100
319.351	0.100
319.619	-0.200
319.888	0.700
320.156	1.900
320.425	2.500
320.693	-1.700
320.962	-1.100
321.230	-0.700
321.499	1.400
321.767	1.700
322.036	1.600
322.304	2.400
322.573	1.700
322.841	4.500
323.109	-0.200
323.378	-1.000
323.646	-0.400
323.914	1.400
324.183	1.700
324.451	0.100
324.720	0.900
324.988	1.600
325.256	0.700
325.525	-0.500
325.793	-0.400
326.061	-0.800
326.330	0.500
326.598	-1.600
326.866	1.000
327.134	-0.100
327.403	-1.200
327.671	-3.300
327.939	-3.100
328.207	-2.200
328.476	-2.400
328.744	1.600
329.012	1.600
329.280	-1.500
329.549	-2.900
329.817	0.400
330.085	1.700
330.353	1.900
330.621	-3.000
330.889	-0.400
331.158	0.900
331.426	-0.100
331.694	1.100
331.962	-0.300
332.230	1.300
332.498	-0.400
332.766	1.400
333.035	2.300
333.303	-1.500
333.571	1.400
333.839	0.100
334.107	0.000
334.375	-3.200
334.643	-0.600
334.911	-0.200
335.179	1.700
335.447	-2.200
335.715	1.000
335.983	-0.700
336.251	1.700
336.519	2.400
336.787	0.100
337.055	1.700
337.323	-1.300
337.591	-1.600
337.859	1.300
338.127	1.100
338.395	-1.300
338.663	1.800
338.931	-0.500
339.199	-0.900
339.467	-2.400
339.734	-0.100
340.002	-2.300
340.270	-0.400
340.538	0.300
340.806	0.400
341.074	-1.400
341.342	-1.400
341.610	1.800
341.877	0.100
342.145	0.700
342.413	-1.700
342.681	-1.200
342.949	-1.400
343.216	-1.800
343.484	-2.500
343.752	0.800
344.020	-0.600
344.288	-1.000
344.555	0.000
344.823	3.000
345.091	0.000
345.359	-1.200
345.626	-0.300
345.894	0.800
346.162	-2.000
346.429	-0.100
346.697	-1.500
346.965	-0.700
347.232	-1.100
347.500	1.300
347.768	-0.800
348.035	0.700
348.303	-0.800
348.571	-3.200
348.838	-0.700
349.106	0.600
349.374	-0.700
349.641	1.100
349.909	-0.100
350.176	0.000
350.444	-2.500
350.712	-0.400
350.979	-0.300
351.247	-2.000
351.514	-0.500
351.782	0.200
352.049	2.000
352.317	0.500
352.584	1.400
352.852	0.000
353.119	0.200
353.387	-1.200
353.654	0.700
353.922	-0.500
354.189	0.300
354.457	0.700
354.724	0.100
354.992	-0.100
355.259	-1.600
355.526	-0.300
355.794	0.500
356.061	-1.100
356.329	0.300
356.596	0.700
356.863	1.200
357.131	-0.900
357.398	-0.100
357.666	-1.100
357.933	0.600
358.200	-0.600
358.468	1.100
358.735	1.500
359.002	-2.600
359.270	0.800
359.537	-1.800
359.804	0.300
360.071	3.500
360.339	-1.900
360.606	3.100
360.873	3.900
361.141	-0.200
361.408	-0.100
361.675	-0.900
361.942	0.900
362.210	-2.200
362.477	2.600
362.744	1.600
363.011	2.100
363.278	-0.800
363.546	-0.100
363.813	-2.400
364.080	1.000
364.347	-2.000
364.614	-2.400
364.881	2.700
365.148	-1.300
365.416	-3.700
365.683	-0.700
365.950	0.200
366.217	-4.400
366.484	-0.800
366.751	0.200
367.018	-1.500
367.285	0.100
367.552	-2.400
367.819	0.700
368.086	1.200
368.354	-3.000
368.621	1.800
368.888	-0.400
369.155	-1.200
369.422	1.700
369.689	-2.600
369.956	0.700
370.223	-1.200
370.490	-1.200
370.757	-3.200
371.024	-0.300
371.290	0.100
371.557	-0.500
371.824	0.300
372.091	-1.400
372.358	-1.000
372.625	-0.500
372.892	-0.800
373.159	-0.400
373.426	-2.400
373.693	-0.700
373.960	0.600
374.226	-0.500
374.493	1.100
374.760	-0.200
375.027	-0.400
375.294	1.400
375.561	-2.700
375.827	-0.500
376.094	2.700
376.361	-1.100
376.628	-1.500
376.895	0.800
377.161	-0.400
377.428	2.000
377.695	-0.200
377.962	-0.200
378.228	-2.800
378.495	2.000
378.762	1.800
379.029	0.000
379.295	-2.500
379.562	-1.100
379.829	-1.300
380.095	-0.700
380.362	-1.600
380.629	0.000
380.896	-2.100
381.162	2.400
381.429	2.100
381.695	-1.700
381.962	-0.500
382.229	-0.500
382.495	-0.300
382.762	2.700
383.029	0.300
383.295	1.300
383.562	-0.900
383.828	-1.800
384.095	-1.300
384.361	-1.200
384.628	-0.800
384.895	-2.500
385.161	-1.200
385.428	1.100
385.694	-3.800
385.961	-0.200
386.227	1.800
386.494	-2.200
386.760	-1.300
387.027	-1.100
387.293	1.000
387.560	0.400
387.826	-0.100
388.092	-0.600
388.359	0.300
388.625	0.200
388.892	-0.500
389.158	-0.200
389.425	-4.800
389.691	0.100
389.957	-0.200
390.224	0.600
390.490	-3.500
390.757	-1.000
391.023	-1.100
391.289	0.600
391.556	2.100
391.822	0.600
392.088	0.000
392.355	-2.700
392.621	-2.400
392.887	-0.600
393.154	-1.300
393.420	-0.200
393.686	0.900
393.952	-2.500
394.219	-0.300
394.485	-0.100
394.751	1.500
395.017	-0.100
395.284	2.400
395.550	-0.900
395.816	-0.100
396.082	-0.100
396.349	-1.000
396.615	2.300
396.881	-3.200
397.147	1.100
397.413	-1.100
397.679	3.100
397.946	-3.400
398.212	2.300
398.478	-2.100
398.744	-3.100
399.010	-2.900
399.276	-0.100
399.542	-0.500
399.808	0.800
400.075	1.200
400.341	1.300
400.607	1.800
400.873	0.400
401.139	-1.100
401.405	-0.800
401.671	2.100
401.937	0.400
402.203	0.800
402.469	1.100
402.735	-0.100
403.001	-2.400
403.267	-1.200
403.533	-1.200
403.799	-1.600
404.065	0.300
404.331	0.000
404.597	-0.300
404.863	-1.200
405.129	-1.800
405.395	-1.000
405.661	-3.200
405.927	0.700
406.192	0.200
406.458	1.900
406.724	0.000
406.990	-0.200
407.256	-0.800
407.522	-0.800
407.788	-1.400
408.054	0.500
408.319	1.800
408.585	-0.600
408.851	0.800
409.117	-1.200
409.383	-0.600
409.649	-0.500
409.914	-1.100
410.180	0.100
410.446	-2.500
410.712	1.100
410.977	2.500
411.243	-0.100
411.509	-2.400
411.775	-0.500
412.040	0.500
412.306	-2.400
412.572	0.600
412.838	-0.300
413.103	0.100
413.369	2.800
413.635	0.100
413.900	-1.100
414.166	1.600
414.432	-1.700
414.697	1.200
414.963	0.700
415.229	-1.200
415.494	1.800
415.760	-1.400
416.025	1.600
416.291	0.600
416.557	-1.100
416.822	1.400
417.088	0.300
417.353	3.200
417.619	0.200
417.884	-0.500
418.150	1.700
418.416	-1.100
418.681	0.700
418.947	0.700
419.212	-3.500
419.478	-0.600
419.743	0.500
420.009	-1.600
420.274	-0.700
420.540	2.400
420.805	1.600
421.071	0.700
421.336	-2.100
421.601	-1.300
421.867	-1.700
422.132	2.300
422.398	1.600
422.663	2.800
422.929	-0.600
423.194	-0.200
423.459	-1.400
423.725	-0.800
423.990	-2.000
424.256	0.900
424.521	-1.000
424.786	-0.900
425.052	-0.300
425.317	0.400
425.582	1.700
425.848	-0.500
426.113	1.100
426.378	-0.300
426.643	1.400
426.909	2.400
427.174	1.700
427.439	-1.600
427.705	0.300
427.970	2.400
428.235	0.300
428.500	1.000
428.766	0.300
429.031	-1.100
429.296	-0.200
429.561	0.300
429.826	-0.100
430.092	0.000
430.357	-0.800
430.622	-0.400
430.887	2.400
431.152	-1.000
431.417	1.500
431.683	1.800
431.948	-0.300
432.213	-1.000
432.478	1.400
432.743	0.500
433.008	-1.500
433.273	-4.800
433.538	1.400
433.803	-1.800
434.069	-1.300
434.334	2.200
434.599	-1.500
434.864	0.200
435.129	2.500
435.394	-1.300
435.659	0.000
435.924	-3.200
436.189	-1.900
436.454	0.600
436.719	1.600
436.984	0.900
437.249	0.700
437.514	3.100
437.779	0.800
438.044	1.800
438.309	-0.500
438.574	0.900
438.838	0.500
439.103	2.200
439.368	-1.400
439.633	-1.900
439.898	2.600
440.163	-0.500
440.428	0.600
440.693	1.300
440.958	2.500
441.222	-0.700
441.487	-1.800
441.752	3.700
442.017	1.700
442.282	2.200
442.547	1.900
442.811	0.600
443.076	0.700
443.341	-3.000
443.606	-1.100
443.871	2.100
444.135	0.700
444.400	0.300
444.665	-1.900
444.930	-0.600
445.194	1.600
445.459	1.500
445.724	-0.300
445.989	0.400
446.253	0.100
446.518	1.100
446.783	3.000
447.047	-1.200
447.312	2.900
447.577	3.700
447.841	0.100
448.106	1.400
448.371	1.100
448.635	3.300
448.900	0.500
449.165	-0.300
449.429	-1.100
449.694	0.800
449.958	-2.500
450.223	0.500
450.488	-1.100
450.752	3.700
451.017	0.900
451.281	1.600
451.546	0.400
451.810	1.300
452.075	3.000
452.339	1.300
452.604	-1.100
452.868	0.700
453.133	-1.100
453.397	-2.600
453.662	1.300
453.926	0.700
454.191	-1.600
454.455	1.400
454.720	0.100
454.984	-0.900
455.249	2.400
455.513	-0.100
455.778	-0.200
456.042	1.500
456.306	1.000
456.571	0.400
456.835	2.300
457.100	2.600
457.364	1.600
457.628	0.600
457.893	-3.200
458.157	3.100
458.421	0.800
458.686	0.200
458.950	5.300
459.214	0.300
459.479	1.200
459.743	1.000
460.007	-1.100
460.272	1.100
460.536	-4.000
460.800	-0.200
461.064	1.300
461.329	0.200
461.593	0.500
461.857	-0.800
462.121	2.200
462.386	-0.200
462.650	1.400
462.914	-1.000
463.178	-4.500
463.442	-0.100
463.707	0.000
463.971	0.200
464.235	0.700
464.499	0.000
464.763	-1.600
465.027	4.000
465.292	2.800
465.556	1.600
465.820	-0.100
466.084	1.400
466.348	-0.100
466.612	-2.100
466.876	0.700
467.140	-0.500
467.404	0.900
467.668	-4.200
467.933	1.000
468.197	-3.700
468.461	-1.800
468.725	1.300
468.989	-0.500
469.253	1.200
469.517	-1.900
469.781	-1.900
470.045	0.200
470.309	1.900
470.573	0.600
470.837	1.200
471.101	0.800
471.365	1.200
471.629	1.000
471.892	-1.900
472.156	-0.300
472.420	-3.200
472.684	-0.800
472.948	0.100
473.212	-0.800
473.476	0.600
473.740	1.600
474.004	2.600
474.268	2.900
474.531	-0.100
474.795	-1.800
475.059	0.300
475.323	1.000
475.587	3.100
475.851	-0.100
476.114	-0.500
476.378	-1.200
476.642	-0.300
476.906	1.100
477.170	-1.000
477.433	-1.300
477.697	0.000
477.961	0.600
478.225	1.000
478.488	-2.600
478.752	1.800
479.016	-1.000
479.280	1.600
479.543	0.700
479.807	0.300
480.071	-2.000
480.334	0.300
480.598	1.800
480.862	2.800
481.125	1.900
481.389	-1.900
481.653	1.000
481.916	-1.600
482.180	1.100
482.444	0.400
482.707	0.300
482.971	-0.400
483.234	1.200
483.498	-0.300
483.762	-1.400
484.025	0.600
484.289	-0.600
484.552	1.200
484.816	2.000
485.079	1.200
485.343	-0.300
485.607	-0.600
485.870	-3.400
486.134	-1.500
486.397	0.900
486.661	-0.200
486.924	0.800
487.188	-1.000
487.451	-1.100
487.715	3.600
487.978	-0.500
488.241	-0.800
488.505	2.100
488.768	1.500
489.032	1.200
489.295	-0.200
489.559	-2.000
489.822	-2.800
490.085	-1.600
490.349	3.500
490.612	1.200
490.876	2.300
491.139	-2.500
491.402	-2.800
491.666	-0.500
491.929	0.500
492.192	0.700
492.456	0.100
492.719	-2.300
492.982	-0.900
493.246	-3.400
493.509	0.100
493.772	3.600
494.035	-1.600
494.299	0.300
494.562	-0.300
494.825	-1.700
495.088	-2.400
495.352	-2.500
495.615	0.100
495.878	-1.000
496.141	-2.700
496.405	-1.200
496.668	-2.800
496.931	-1.200
497.194	1.000
497.457	0.000
497.721	0.500
497.984	0.300
498.247	1.400
498.510	0.600
498.773	1.000
499.036	0.000
499.299	2.100
499.562	0.000
499.826	-1.000
500.089	-2.300
500.352	0.200
500.615	-1.600
500.878	-0.400
501.141	-0.500
501.404	2.700
501.667	0.200
501.930	0.900
502.193	0.700
502.456	-2.400
502.719	0.000
502.982	1.100
503.245	-0.100
503.508	-1.700
503.771	-1.000
504.034	-0.300
504.297	-0.300
504.560	2.500
504.823	1.000
505.086	-1.100
505.349	2.300
505.612	-2.200
505.875	-0.200
506.138	1.900
506.401	0.300
506.664	0.900
506.927	-1.000
507.189	1.900
507.452	-3.300
507.715	-1.600
507.978	-0.300
508.241	0.400
508.504	-0.700
508.767	-0.600
509.029	0.500
509.292	2.600
509.555	-1.000
509.818	-0.400
510.081	-1.000
510.343	-3.400
510.606	1.000
510.869	-2.100
511.132	-0.800
511.395	1.200
511.657	-1.300
511.920	2.000
512.183	-2.300
512.446	1.200
512.708	-0.200
512.971	-0.300
513.234	-1.900
513.496	-3.200
513.759	-1.300
514.022	-4.400
514.284	1.400
514.547	-0.500
514.810	0.900
515.072	1.200
515.335	-2.100
515.598	2.700
515.860	-0.300
516.123	0.400
516.386	-0.900
516.648	-3.000
516.911	-1.500
517.173	-2.500
517.436	-2.200
517.698	0.100
517.961	1.900
518.224	-2.400
518.486	-1.300
518.749	-0.300
519.011	-1.600
519.274	-1.000
519.536	-4.200
519.799	-3.700
520.061	1.100
520.324	-0.100
520.586	-1.700
520.849	-3.100
521.111	0.100
521.374	1.000
521.636	2.200
521.899	-2.800
522.161	1.200
522.423	-2.000
522.686	-0.200
522.948	-4.800
523.211	0.300
523.473	-2.900
523.736	-0.800
523.998	-1.100
524.260	1.200
524.523	-2.900
524.785	1.400
525.047	-1.100
525.310	-3.800
525.572	0.700
525.834	-2.500
526.097	-0.200
526.359	0.500
526.621	0.300
526.884	0.900
527.146	-0.600
527.408	-1.100
527.670	-3.600
527.933	0.800
528.195	-3.300
528.457	-1.900
528.719	-0.800
528.982	-2.900
529.244	-1.900
529.506	-4.700
529.768	2.800
530.031	-0.600
530.293	-4.100
530.555	-0.600
530.817	2.000
531.079	3.000
531.342	-4.100
531.604	0.600
531.866	0.600
532.128	-1.300
532.390	-1.500
532.652	-3.700
532.914	-4.500
533.176	-0.800
533.439	-2.300
533.701	-2.700
533.963	1.700
534.225	0.200
534.487	-1.600
534.749	1.800
535.011	-0.700
535.273	-3.300
535.535	-1.400
535.797	-0.200
536.059	-0.400
536.321	-3.400
536.583	1.900
536.845	-4.300
537.107	-0.100
537.369	-1.000
537.631	-1.000
537.893	-1.400
538.155	-0.300
538.417	-0.200
538.679	-2.900
538.941	-0.600
539.203	-0.700
539.465	-0.400
539.727	-0.200
539.989	2.600
540.251	0.000
540.512	-3.200
540.774	-0.800
541.036	-0.300
541.298	-3.800
541.560	2.300
541.822	1.200
542.084	-0.900
542.345	-0.200
542.607	1.200
542.869	-2.700
543.131	-1.300
543.393	2.000
543.655	-1.100
543.916	-4.400
544.178	2.500
544.440	-0.700
544.702	-0.800
544.963	-0.800
545.225	-0.400
545.487	-0.200
545.749	-3.500
546.010	-3.600
546.272	-1.200
546.534	-2.700
546.795	0.800
547.057	0.500
547.319	1.500
547.581	-0.900
547.842	3.100
548.104	-1.500
548.366	0.900
548.627	-2.100
548.889	0.000
549.150	0.100
549.412	0.400
549.674	-3.800
549.935	-1.800
550.197	-0.100
550.459	-4.100
550.720	-2.900
550.982	-2.900
551.243	-0.700
551.505	1.300
551.766	-3.400
552.028	-2.200
552.289	-1.900
552.551	-3.400
552.813	1.100
553.074	-2.700
553.336	4.000
553.597	-1.900
553.859	1.900
554.120	-2.700
554.382	-1.300
554.643	-2.300
554.904	-0.900
555.166	-2.500
555.427	2.800
555.689	-0.400
555.950	1.000
556.212	1.600
556.473	-0.500
556.735	-0.800
556.996	-1.300
557.257	-0.100
557.519	3.400
557.780	-2.600
558.041	-2.600
558.303	-3.600
558.564	-4.000
558.826	0.700
559.087	2.000
559.348	-0.600
559.609	1.400
559.871	0.300
560.132	-0.500
560.393	-0.500
560.655	-0.700
560.916	-0.700
561.177	-0.900
561.439	-3.900
561.700	2.200
561.961	0.400
562.222	-0.300
562.484	-2.700
562.745	0.100
563.006	1.900
563.267	0.400
563.528	1.200
563.790	-0.100
564.051	2.300
564.312	-2.100
564.573	-1.700
564.834	-0.400
565.095	0.300
565.357	0.400
565.618	2.900
565.879	-1.900
566.140	-1.400
566.401	1.300
566.662	-1.600
566.923	2.700
567.184	1.500
567.446	2.100
567.707	0.200
567.968	-0.400
568.229	-1.900
568.490	-1.700
568.751	1.900
569.012	1.500
569.273	-0.700
569.534	-2.400
569.795	-4.100
570.056	-1.800
570.317	-0.500
570.578	2.000
570.839	1.300
571.100	1.600
571.361	3.200
571.622	0.500
571.883	-0.700
572.144	-3.500
572.405	1.600
572.666	-1.100
572.927	-1.200
573.188	1.600
573.449	-1.800
573.709	0.600
573.970	2.200
574.231	0.300
574.492	1.300
574.753	-1.500
575.014	-0.100
575.275	1.800
575.536	-1.300
575.796	2.200
576.057	-1.000
576.318	0.700
576.579	-0.700
576.840	0.000
577.100	-1.800
577.361	-0.900
577.622	-2.200
577.883	1.100
578.144	0.500
578.404	0.700
578.665	3.900
578.926	0.400
579.187	1.100
579.447	-2.600
579.708	-0.500
579.969	-1.000
580.229	-2.000
580.490	2.500
580.751	3.000
581.012	-2.200
581.272	-2.700
581.533	4.000
581.794	-0.600
582.054	-1.300
582.315	-1.500
582.576	0.100
582.836	1.500
583.097	-1.200
583.357	-3.100
583.618	1.900
583.879	2.600
584.139	0.100
584.400	-4.600
584.660	-1.200
584.921	-0.200
585.181	2.500
585.442	1.700
585.703	3.200
585.963	0.300
586.224	2.600
586.484	-3.200
586.745	0.300
587.005	4.400
587.266	-0.900
587.526	0.400
587.787	-1.200
588.047	0.700
588.308	2.500
588.568	-0.600
588.829	-0.500
589.089	-1.200
589.349	0.100
589.610	1.300
589.870	1.700
590.131	-0.300
590.391	0.500
590.651	-2.100
590.912	-0.300
591.172	-1.500
591.433	1.300
591.693	1.700
591.953	-1.600
592.214	0.700
592.474	-2.100
592.734	0.600
592.995	-1.600
593.255	-1.300
593.515	-0.900
593.776	1.900
594.036	0.800
594.296	-0.400
594.557	-1.000
594.817	2.200
595.077	1.900
595.337	0.000
595.598	1.700
595.858	4.000
596.118	-0.500
596.378	2.200
596.639	0.600
596.899	-1.100
597.159	0.000
597.419	1.600
597.679	3.200
597.939	2.100
598.200	-1.400
598.460	0.100
598.720	2.500
598.980	1.800
599.240	-0.500
599.500	1.600
599.761	-1.400
600.021	1.000
600.281	3.400
600.541	-1.800
600.801	-0.200
601.061	-0.600
601.321	1.900
601.581	2.400
601.841	-1.300
602.101	2.500
602.361	-0.600
602.621	-2.800
602.881	-0.400
603.142	-0.200
603.402	4.400
603.662	3.100
603.922	-1.100
604.182	2.100
604.442	2.500
604.702	-0.200
604.961	0.900
605.221	-1.500
605.481	-0.100
605.741	1.000
606.001	1.500
606.261	1.900
606.521	1.100
606.781	-0.800
607.041	3.000
607.301	2.700
607.561	-0.700
607.821	2.000
608.081	0.700
608.340	2.200
608.600	3.400
608.860	0.000
609.120	-1.600
609.380	0.900
609.640	-0.800
609.899	1.200
610.159	1.800
610.419	-0.300
610.679	0.100
610.939	1.600
611.199	0.900
611.458	0.500
611.718	0.300
611.978	0.700
612.238	2.500
612.497	0.700
612.757	0.400
613.017	2.800
613.277	-0.400
613.536	1.300
613.796	0.900
614.056	2.400
614.315	0.100
614.575	1.300
614.835	-0.400
615.094	-1.000
615.354	-1.000
615.614	-0.700
615.873	-1.400
616.133	2.300
616.393	-0.200
616.652	-1.100
616.912	-0.400
617.171	0.200
617.431	-0.100
617.691	-0.800
617.950	4.500
618.210	0.100
618.469	0.900
618.729	2.000
618.989	2.200
619.248	0.700
619.508	-1.100
619.767	0.200
620.027	-0.200
620.286	-0.100
620.546	2.900
620.805	-1.000
621.065	2.400
621.324	1.000
621.584	3.000
621.843	1.500
622.103	4.300
622.362	1.800
622.622	1.900
622.881	0.000
623.140	1.100
623.400	0.100
623.659	-2.200
623.919	1.700
624.178	3.800
624.437	3.300
624.697	0.000
624.956	2.600
625.216	0.500
625.475	0.300
625.734	3.400
625.994	1.400
626.253	0.400
626.512	-1.900
626.772	-0.500
627.031	2.000
627.290	1.500
627.550	2.300
627.809	0.200
628.068	3.900
628.327	-2.300
628.587	2.200
628.846	-1.400
629.105	1.300
629.364	4.700
629.624	1.000
629.883	-3.400
630.142	2.100
630.401	2.800
630.661	0.700
630.920	1.000
631.179	-1.300
631.438	-1.800
631.697	-0.600
631.957	1.100
632.216	2.400
632.475	0.700
632.734	-0.500
632.993	1.800
633.252	1.600
633.511	0.200
633.770	-2.200
634.030	1.100
634.289	0.800
634.548	3.400
634.807	1.900
635.066	-0.200
635.325	0.900
635.584	2.200
635.843	3.600
636.102	0.300
636.361	1.700
636.620	0.500
636.879	0.600
637.138	1.900
637.397	2.600
637.656	0.100
637.915	0.900
638.174	2.600
638.433	-0.400
638.692	-0.100
638.951	0.400
639.210	2.200
639.469	2.500
639.728	0.800
639.987	2.600
640.246	0.400
640.505	2.400
640.764	-0.900
641.023	0.000
641.282	2.200
641.540	0.900
641.799	1.600
642.058	0.300
642.317	-1.500
642.576	-0.300
642.835	1.400
643.094	1.700
643.352	0.200
643.611	-0.300
643.870	1.500
644.129	-0.900
644.388	3.000
644.646	1.900
644.905	-0.800
645.164	1.500
645.423	2.100
645.682	-1.800
645.940	-1.700
646.199	1.700
646.458	2.500
646.716	-0.900
646.975	0.400
647.234	2.400
647.493	0.600
647.751	1.700
648.010	0.700
648.269	-2.800
648.527	1.000
648.786	2.200
649.045	0.100
649.303	2.700
649.562	0.400
649.821	2.100
650.079	0.500
650.338	-1.400
650.597	-1.700
650.855	1.100
651.114	0.000
651.372	1.900
651.631	0.800
651.890	-0.800
652.148	2.600
652.407	-0.400
652.665	-0.800
652.924	1.700
653.182	0.900
653.441	3.400
653.699	1.900
653.958	1.500
654.216	-0.200
654.475	-0.800
654.733	0.500
654.992	0.900
655.250	1.100
655.509	2.400
655.767	1.600
656.026	-0.200
656.284	1.500
656.543	-0.400
656.801	2.300
657.059	4.000
657.318	0.800
657.576	-0.200
657.835	1.600
658.093	1.400
658.351	1.800
658.610	1.200
658.868	2.900
659.127	-1.200
659.385	0.800
659.643	0.800
659.902	1.300
660.160	0.100
660.418	0.900
660.677	0.000
660.935	2.800
661.193	-0.900
661.452	-0.700
661.710	0.500
661.968	1.700
662.226	0.400
662.485	-1.200
662.743	1.200
663.001	0.100
663.259	0.400
663.518	0.800
663.776	0.600
664.034	1.000
664.292	1.900
664.550	0.700
664.809	0.900
665.067	-2.300
665.325	0.700
665.583	0.200
665.841	1.900
666.099	2.200
666.358	1.800
666.616	-1.000
666.874	1.300
667.132	-0.900
667.390	2.000
667.648	-0.300
667.906	-1.700
668.164	-2.700
668.423	-1.100
668.681	-2.200
668.939	1.000
669.197	1.700
669.455	-0.700
669.713	1.700
669.971	-1.700
670.229	-3.300
670.487	-0.200
670.745	0.600
671.003	1.000
671.261	-0.800
671.519	-0.600
671.777	0.900
672.035	-1.300
672.293	-0.900
672.551	0.800
672.809	3.800
673.067	1.800
673.325	3.700
673.583	-2.700
673.841	2.300
674.099	0.700
674.356	0.000
674.614	-2.100
674.872	-2.300
675.130	-0.900
675.388	-1.700
675.646	2.700
675.904	1.000
676.162	0.200
676.419	0.300
676.677	-0.200
676.935	0.800
677.193	0.500
677.451	-2.800
677.709	-2.000
677.966	1.300
678.224	1.100
678.482	0.300
678.740	-1.600
678.998	2.100
679.255	-0.900
679.513	0.100
679.771	-0.200
680.029	-1.200
680.286	-1.800
680.544	-2.000
680.802	-1.700
681.059	-0.700
681.317	1.000
681.575	-0.900
681.833	-1.500
682.090	-1.700
682.348	-0.100
682.606	2.300
682.863	-2.700
683.121	2.200
683.379	-1.200
683.636	-1.000
683.894	2.700
684.151	-1.800
684.409	0.000
684.667	1.900
684.924	0.400
685.182	0.900
685.439	-2.200
685.697	-0.600
685.955	-0.900
686.212	-0.500
686.470	-4.200
686.727	-0.100
686.985	-0.400
687.242	-2.200
687.500	0.200
687.757	-2.800
688.015	0.500
688.272	1.700
688.530	-3.900
688.787	-0.100
689.045	-1.200
689.302	-0.400
689.560	0.200
689.817	-1.400
690.075	0.300
690.332	-1.100
690.589	-0.100
690.847	-0.100
691.104	0.100
691.362	0.500
691.619	0.200
691.876	-2.500
692.134	0.700
692.391	-1.700
692.649	-2.300
692.906	1.700
693.163	3.300
693.421	-1.700
693.678	0.900
693.935	-2.900
694.193	-3.200
694.450	-2.900
694.707	-1.100
694.965	-1.100
695.222	-1.900
695.479	-0.400
695.736	2.100
695.994	0.600
696.251	-6.900
696.508	37.500
696.765	112.100
697.023	76.000
697.280	15.000
697.537	-2.100
697.794	1.000
698.052	0.900
698.309	-2.700
698.566	-0.900
698.823	1.400
699.080	-0.100
699.338	-0.300
699.595	-0.200
699.852	-0.100
700.109	2.400
700.366	-1.500
700.623	-1.500
700.880	-2.400
701.137	-0.700
701.395	-2.100
701.652	-0.100
701.909	-1.100
702.166	0.800
702.423	1.200
702.680	-0.300
702.937	3.600
703.194	-2.600
703.451	-1.300
703.708	1.400
703.965	0.400
704.222	2.000
704.479	0.900
704.736	-0.900
704.993	0.000
705.250	1.400
705.507	-0.700
705.764	0.300
706.021	-1.700
706.278	-1.200
706.535	-4.200
706.792	13.400
707.049	54.300
707.306	18.300
707.563	-4.100
707.820	1.300
708.077	-2.000
708.334	2.100
708.591	-0.800
708.847	-0.900
709.104	-2.100
709.361	-1.700
709.618	2.100
709.875	-5.200
710.132	2.600
710.389	2.300
710.645	-0.300
710.902	2.300
711.159	-1.800
711.416	-0.700
711.673	0.900
711.930	-0.700
712.186	-0.900
712.443	0.100
712.700	-1.600
712.957	1.300
713.213	-0.200
713.470	1.300
713.727	-3.400
713.984	-0.600
714.240	4.100
714.497	1.900
714.754	0.800
715.011	-2.200
715.267	1.400
715.524	-1.500
715.781	1.200
716.037	-0.900
716.294	-1.800
716.551	-0.100
716.807	2.400
717.064	-1.200
717.321	2.800
717.577	-2.100
717.834	-0.500
718.090	0.800
718.347	1.600
718.604	-2.000
718.860	0.700
719.117	-1.100
719.373	-1.600
719.630	-1.400
719.886	-1.900
720.143	-1.700
720.400	0.200
720.656	-3.300
720.913	-1.600
721.169	-0.500
721.426	2.100
721.682	-2.900
721.939	1.100
722.195	0.700
722.452	-0.700
722.708	-3.400
722.965	3.100
723.221	0.300
723.478	-3.800
723.734	2.700
723.990	-2.900
724.247	-0.100
724.503	-0.500
724.760	1.900
725.016	2.200
725.273	-1.500
725.529	1.300
725.785	-0.500
726.042	0.600
726.298	-0.100
726.554	1.200
726.811	-0.700
727.067	0.800
727.323	-1.400
727.580	0.200
727.836	-0.400
728.092	1.700
728.349	-1.100
728.605	0.600
728.861	-0.900
729.118	1.900
729.374	-0.300
729.630	0.600
729.886	1.100
730.143	-3.800
730.399	-0.500
730.655	-2.000
730.911	2.900
731.168	3.000
731.424	1.800
731.680	2.000
731.936	-1.700
732.193	-0.900
732.449	-1.100
732.705	-2.100
732.961	0.900
733.217	3.800
733.473	-1.600
733.730	0.200
733.986	-1.200
734.242	-0.200
734.498	-1.300
734.754	1.600
735.010	0.000
735.266	1.400
735.522	-1.800
735.778	-2.900
736.035	-1.500
736.291	-2.700
736.547	-0.100
736.803	1.100
737.059	0.300
737.315	0.300
737.571	-1.200
737.827	-0.100
738.083	-7.500
738.339	41.300
738.595	123.100
738.851	125.600
739.107	51.400
739.363	2.600
739.619	-4.900
739.875	2.400
740.131	2.600
740.387	-1.200
740.643	-1.700
740.899	1.600
741.155	0.300
741.411	1.100
741.666	-0.300
741.922	-1.600
742.178	-2.000
742.434	-0.500
742.690	0.300
742.946	1.500
743.202	0.900
743.458	1.800
743.714	-3.600
743.969	-1.800
744.225	-1.300
744.481	0.300
744.737	-0.800
744.993	2.400
745.249	2.000
745.504	0.900
745.760	0.100
746.016	-3.000
746.272	-0.200
746.527	2.800
746.783	2.600
747.039	-1.100
747.295	2.600
747.550	-0.300
747.806	0.300
748.062	-0.300
748.318	-2.500
748.573	0.900
748.829	-0.100
749.085	2.600
749.340	1.900
749.596	0.000
749.852	-0.700
750.108	-10.100
750.363	62.600
750.619	158.000
750.874	190.100
751.130	150.900
751.386	128.200
751.641	171.300
751.897	180.700
752.153	92.700
752.408	23.900
752.664	-3.700
752.919	-0.100
753.175	-0.600
753.430	-0.200
753.686	2.300
753.942	-1.900
754.197	-2.900
754.453	0.500
754.708	-0.300
754.964	0.000
755.219	3.400
755.475	-1.800
755.730	0.700
755.986	0.700
756.241	-2.300
756.497	0.000
756.752	-3.900
757.008	-0.800
757.263	0.000
757.519	0.700
757.774	-2.300
758.029	-1.600
758.285	0.700
758.540	1.900
758.796	0.100
759.051	-2.300
759.307	1.500
759.562	-3.000
759.817	-1.400
760.073	2.100
760.328	1.300
760.583	0.800
760.839	1.400
761.094	-0.700
761.349	-1.100
761.605	-1.300
761.860	-1.100
762.115	0.600
762.371	1.000
762.626	2.600
762.881	-9.500
763.137	144.900
763.392	294.100
763.647	564.800
763.902	747.900
764.158	580.400
764.413	309.400
764.668	129.800
764.923	32.400
765.179	-5.700
765.434	-0.500
765.689	-3.300
765.944	-0.200
766.199	-1.700
766.455	-0.500
766.710	-0.400
766.965	0.200
767.220	-0.700
767.475	1.800
767.730	0.000
767.985	-0.100
768.241	-0.100
768.496	0.400
768.751	0.000
769.006	1.100
769.261	-0.600
769.516	-1.600
769.771	-0.500
770.026	1.800
770.281	-1.100
770.536	-0.500
770.791	1.300
771.047	-2.100
771.302	2.200
771.557	-0.200
771.812	1.500
772.067	-7.400
772.322	43.600
772.577	149.700
772.832	223.700
773.087	163.900
773.342	65.100
773.597	6.100
773.852	-5.300
774.107	-2.200
774.361	-0.300
774.616	2.100
774.871	-0.700
775.126	0.000
775.381	2.200
775.636	3.000
775.891	1.600
776.146	2.700
776.401	0.100
776.656	-1.600
776.911	3.800
777.165	-2.500
777.420	1.600
777.675	0.700
777.930	1.700
778.185	1.200
778.440	-1.400
778.694	2.800
778.949	0.000
779.204	1.800
779.459	2.200
779.714	2.000
779.968	0.500
780.223	-0.500
780.478	-2.800
780.733	1.100
780.988	-1.300
781.242	0.900
781.497	2.000
781.752	-0.600
782.006	-1.200
782.261	0.100
782.516	3.000
782.771	1.400
783.025	-0.600
783.280	-0.100
783.535	-2.700
783.789	2.800
784.044	-0.800
784.299	2.600
784.553	2.500
784.808	2.400
785.063	1.000
785.317	2.000
785.572	2.900
785.826	-0.500
786.081	-1.100
786.336	-2.200
786.590	-0.200
786.845	0.000
787.099	0.100
787.354	-2.300
787.609	2.400
787.863	-0.300
788.118	-0.100
788.372	-0.200
788.627	-3.200
788.881	1.000
789.136	-0.700
789.390	1.500
789.645	0.000
789.899	0.700
790.154	2.000
790.408	2.100
790.663	-1.100
790.917	-0.500
791.172	0.900
791.426	1.600
791.680	0.100
791.935	-1.400
792.189	-0.500
792.444	-2.300
792.698	0.700
792.953	-1.300
793.207	1.000
793.461	0.400
793.716	-2.100
793.970	1.600
794.224	-0.700
794.479	-1.700
794.733	-10.700
794.987	57.800
795.242	140.600
795.496	129.200
795.750	52.500
796.005	8.900
796.259	-3.800
796.513	-0.800
796.768	2.000
797.022	1.100
797.276	-1.500
797.530	1.700
797.785	1.600
798.039	1.600
798.293	1.500
798.547	-0.300
798.802	-3.400
799.056	0.200
799.310	-1.300
799.564	-1.500
799.819	0.700
800.073	1.500
800.327	-3.600
800.581	-2.900
800.835	15.500
801.089	113.500
801.344	148.600
801.598	158.300
801.852	218.000
802.106	212.900
802.360	120.100
802.614	39.200
802.868	2.400
803.122	-1.500
803.377	-0.100
803.631	0.400
803.885	-3.300
804.139	1.900
804.393	0.600
804.647	0.800
804.901	-1.100
805.155	1.700
805.409	0.800
805.663	-1.500
805.917	-1.500
806.171	1.300
806.425	-2.100
806.679	0.300
806.933	-2.700
807.187	1.500
807.441	-0.900
807.695	0.200
807.949	1.900
808.203	-2.800
808.457	-2.400
808.711	0.100
808.965	1.400
809.219	0.800
809.473	-1.200
809.726	-0.200
809.980	-0.100
810.234	-10.300
810.488	62.300
810.742	168.200
810.996	254.100
811.250	290.500
811.504	339.600
811.757	491.700
812.011	723.600
812.265	681.400
812.519	414.300
812.773	201.200
813.027	75.600
813.280	14.100
813.534	-4.700
813.788	-5.200
814.042	0.100
814.295	0.200
814.549	-2.700
814.803	1.400
815.057	-0.100
815.310	-0.400
815.564	-0.600
815.818	2.400
816.072	-0.300
816.325	-0.300
816.579	-0.500
816.833	-0.600
817.086	-0.900
817.340	1.700
817.594	-1.400
817.848	-0.200
818.101	0.800
818.355	1.900
818.608	-0.500
818.862	1.000
819.116	1.900
819.369	-0.800
819.623	-0.600
819.877	-3.500
820.130	1.200
820.384	-2.700
820.637	-0.200
820.891	-0.300
821.144	0.800
821.398	0.000
821.652	1.800
821.905	1.900
822.159	0.600
822.412	-0.600
822.666	-2.300
822.919	0.200
823.173	1.100
823.426	-1.700
823.680	-1.200
823.933	1.100
824.187	-0.500
824.440	-2.700
824.694	-0.100
824.947	-2.500
825.201	0.200
825.454	0.900
825.707	0.300
825.961	-0.500
826.214	-1.500
826.468	1.200
826.721	-11.200
826.975	56.100
827.228	66.000
827.481	23.200
827.735	-5.800
827.988	0.300
828.241	0.800
828.495	-0.500
828.748	0.800
829.001	-0.200
829.255	2.300
829.508	-2.200
829.761	2.800
830.015	1.100
830.268	-0.600
830.521	-1.200
830.775	0.700
831.028	-4.300
831.281	3.300
831.534	-2.100
831.788	1.200
832.041	1.300
832.294	2.300
832.547	0.800
832.801	0.500
833.054	-1.200
833.307	2.200
833.560	-0.400
833.813	-0.700
834.067	-2.200
834.320	-2.500
834.573	0.300
834.826	1.000
835.079	0.800
835.332	0.100
835.586	0.900
835.839	1.900
836.092	-1.200
836.345	-0.200
836.598	0.500
836.851	-0.200
837.104	-1.600
837.357	-1.500
837.611	-0.600
837.864	1.200
838.117	1.200
838.370	-0.800
838.623	-2.800
838.876	0.400
839.129	2.600
839.382	1.800
839.635	-2.900
839.888	-2.200
840.141	1.300
840.394	-2.100
840.647	2.200
840.900	-8.300
841.153	42.700
841.406	129.000
841.659	144.900
841.912	77.100
842.165	35.600
842.418	46.900
842.671	87.800
842.924	181.700
843.176	268.800
843.429	203.900
843.682	88.900
843.935	21.000
844.188	-5.200
844.441	-2.200
844.694	1.700
844.947	-0.900
845.200	1.400
845.452	-2.800
845.705	-3.300
845.958	-0.300
846.211	0.300
846.464	0.900
846.717	-1.900
846.969	-0.100
847.222	-1.100
847.475	-1.200
847.728	0.100
847.981	-1.400
848.233	-2.700
848.486	1.000
848.739	-2.000
848.992	-0.300
849.244	0.400
849.497	-3.100
849.750	-1.500
850.003	-3.300
850.255	-0.700
850.508	-1.100
850.761	-0.300
851.013	0.900
851.266	0.000
851.519	0.400
851.771	-2.500
852.024	-1.900
852.277	0.000
852.529	-5.300
852.782	-0.100
853.035	31.400
853.287	1.200
853.540	-5.800
853.792	0.300
854.045	1.100
854.298	-1.500
854.550	0.700
854.803	1.800
855.055	-1.900
855.308	0.700
855.560	-3.400
855.813	-0.300
856.066	-3.900
856.318	-1.500
856.571	-2.500
856.823	0.600
857.076	0.300
857.328	-1.200
857.581	0.600
857.833	-1.300
858.086	-2.200
858.338	-0.800
858.591	1.500
858.843	-4.100
859.095	1.700
859.348	1.300
859.600	-0.500
859.853	-3.800
860.105	-0.800
860.358	1.000
860.610	-3.300
860.862	-1.000
861.115	-1.000
861.367	-1.800
861.620	-3.100
861.872	2.000
862.124	-0.800
862.377	-0.600
862.629	-1.600
862.881	-2.000
863.134	-3.000
863.386	1.900
863.638	-2.700
863.891	-3.700
864.143	-2.300
864.395	-0.100
864.648	-4.200
864.900	1.100
865.152	-1.600
865.404	-3.100
865.657	1.700
865.909	-0.300
866.161	-2.800
866.413	3.800
866.666	-2.900
866.918	-0.900
867.170	-3.000
867.422	-0.900
867.674	1.500
867.927	0.300
868.179	-2.100
868.431	0.400
868.683	1.900
868.935	0.900
869.187	-0.100
869.440	-0.100
869.692	0.100
869.944	-3.600
870.196	-3.200
870.448	-3.400
870.700	1.000
870.952	0.000
871.204	-0.700
871.457	-1.400
871.709	-0.800
871.961	-1.200
872.213	0.300
872.465	0.100
872.717	1.200
872.969	-2.800
873.221	-3.000
873.473	-1.200
873.725	-1.300
873.977	-3.200
874.229	-2.500
874.481	1.700
874.733	-3.100
874.985	0.900
875.237	-1.600
875.489	0.500
875.741	-0.900
875.993	-1.900
876.245	2.700
876.497	-0.300
876.749	-2.800
877.001	-0.100
877.253	4.600
877.504	-2.200
877.756	-0.200
878.008	0.000
878.260	0.900
878.512	-0.700
878.764	0.600
879.016	1.400
879.268	0.200
879.519	-2.000
879.771	0.400
880.023	-0.700
880.275	-0.600
880.527	3.600
880.779	-3.100
881.030	1.600
881.282	-0.900
881.534	-2.300
881.786	-0.100
882.038	-2.300
882.289	1.800
882.541	-0.200
882.793	1.500
883.045	-0.700
883.296	0.900
883.548	-1.900
883.800	-0.800
884.052	1.100
884.303	-1.600
884.555	1.400
884.807	1.100
885.058	-2.200
885.310	-0.600
885.562	-1.100
885.813	-2.300
886.065	-2.200
886.317	-1.500
886.568	0.700
886.820	-0.300
887.072	-1.600
887.323	-0.100
887.575	-1.800
887.826	-1.700
888.078	-2.600
888.330	0.800
888.581	0.000
888.833	-2.700
889.084	-1.100
889.336	2.900
889.587	-2.200
889.839	-2.000
890.091	2.800
890.342	0.200
890.594	-1.600
890.845	0.600
891.097	1.800
891.348	3.600
891.600	-2.700
891.851	0.900
892.103	1.900
892.354	-0.400
892.606	-3.700
892.857	-1.800
893.108	1.000
893.360	1.800
893.611	-4.500
893.863	1.000
894.114	-2.300
894.366	0.700
894.617	-1.600
894.868	2.400
895.120	3.100
895.371	-1.000
895.623	-1.600
895.874	0.100
896.125	0.000
896.377	0.300
896.628	-0.200
896.879	2.300
897.131	0.700
897.382	1.500
897.633	0.900
897.885	-0.600
898.136	-1.100
898.387	-0.800
898.639	-0.200
898.890	-0.800
899.141	-1.700
899.392	-0.200
899.644	-0.500
899.895	-2.700
900.146	0.300
900.397	-1.800
900.649	-1.700
900.900	1.100
901.151	-0.200
901.402	-1.700
901.653	-4.300
901.905	0.300
902.156	-0.700
902.407	-2.800
902.658	4.600
902.909	-3.300
903.160	-1.800
903.412	-0.200
903.663	-2.000
903.914	0.600
904.165	-0.100
904.416	-1.100
904.667	-1.800
904.918	2.000
905.169	0.700
905.421	0.700
905.672	2.600
905.923	2.200
906.174	-0.100
906.425	-0.800
906.676	-0.400
906.927	1.600
907.178	-0.600
907.429	0.800
907.680	0.700
907.931	-1.600
908.182	-3.200
908.433	0.100
908.684	2.000
908.935	-2.200
909.186	-1.200
909.437	-1.500
909.688	3.800
909.939	1.900
910.190	-0.900
910.441	-0.700
910.692	-0.100
910.943	-3.000
911.194	2.500
911.445	-1.200
911.695	0.400
911.946	0.500
912.197	0.400
912.448	1.600
912.699	-0.300
912.950	-9.700
913.201	90.800
913.452	145.900
913.702	101.000
913.953	29.800
914.204	-4.200
914.455	1.000
914.706	-1.200
914.957	-0.300
915.207	0.300
915.458	0.900
915.709	-0.600
915.960	-3.000
916.210	-0.500
916.461	-1.600
916.712	2.800
916.963	0.200
917.213	-0.900
917.464	-0.800
917.715	-1.900
917.966	0.800
918.216	-1.000
918.467	-1.400
918.718	-1.300
918.969	3.400
919.219	-0.900
919.470	1.300
919.721	2.700
919.971	0.600
920.222	2.600
920.473	0.200
920.723	-5.700
920.974	1.300
921.224	0.500
921.475	0.400
921.726	-3.700
921.976	0.300
922.227	-0.100
922.477	-0.600
922.728	1.100
922.979	-2.500
923.229	-0.500
923.480	2.400
923.730	-0.400
923.981	0.800
924.231	0.800
924.482	1.000
924.732	3.600
924.983	2.600
925.233	-0.500
925.484	-2.600
925.734	2.600
925.985	-0.200
926.235	0.000
926.486	-2.200
926.736	-2.100
926.987	3.100
927.237	-0.300
927.488	-1.100
927.738	0.300
927.989	1.600
928.239	0.200
928.489	4.100
928.740	-1.700
928.990	-2.600
929.241	-1.000
929.491	-0.600
929.741	0.100
929.992	1.500
930.242	-1.100
930.492	-2.200
930.743	0.000
930.993	0.700
931.243	2.400
931.494	2.300
931.744	0.600
931.994	0.600
932.245	1.400
932.495	1.500
932.745	-2.000
932.996	-1.400
933.246	0.100
933.496	-3.500
933.746	-3.100
933.997	1.700
934.247	1.200
934.497	3.900
934.747	0.700
934.998	-0.900
935.248	0.100
935.498	1.000
935.748	1.600
935.998	-2.800
936.249	-0.700
936.499	-1.000
936.749	0.800
936.999	-0.200
937.249	1.600
937.499	1.400
937.750	3.700
938.000	-0.500
938.250	1.500
938.500	1.200
938.750	2.100
939.000	0.400
939.250	-0.600
939.500	-1.100
939.750	-3.700
940.000	-0.800
940.251	2.100
940.501	2.500
940.751	-1.000
941.001	2.800
941.251	-2.100
941.501	-0.200
941.751	-3.200
942.001	0.500
942.251	1.700
942.501	0.800
942.751	2.700
943.001	1.400
943.251	0.800
943.501	0.200
943.751	1.900
944.001	-1.000
944.251	-1.400
944.501	0.800
944.751	0.600
945.000	1.700
945.250	3.200
945.500	2.300
945.750	-2.600
946.000	-1.700
946.250	2.500
946.500	-1.200
946.750	1.800
947.000	1.800
947.249	0.300
947.499	0.100
947.749	2.000
947.999	-1.100
948.249	2.800
948.499	-3.200
948.749	2.900
948.998	1.200
949.248	3.100
949.498	-1.000
949.748	2.200
949.997	1.600
950.247	-0.100
950.497	3.400
950.747	-1.400
950.997	-0.900
951.246	-2.000
951.496	0.100
951.746	-0.100
951.995	-2.400
952.245	-2.500
952.495	-1.100
952.745	-1.600
952.994	2.300
953.244	-0.600
953.494	-0.700
953.743	1.300
953.993	-2.000
954.243	0.900
954.492	0.700
954.742	-0.400
954.992	1.500
955.241	-3.200
955.491	-0.500
955.740	1.300
955.990	-3.100
956.240	-1.400
956.489	0.700
956.739	1.000
956.988	2.400
957.238	-0.700
957.488	-1.100
957.737	-2.300
957.987	0.400
958.236	-2.200
958.486	0.300
958.735	-2.100
958.985	-1.900
959.234	-0.100
959.484	0.200
959.733	-0.100
959.983	-1.100
960.232	-0.900
960.482	2.600
960.731	-2.100
960.981	1.400
961.230	-0.700
961.480	-0.100
961.729	0.400
961.978	-0.400
962.228	0.400
962.477	-3.700
962.727	3.100
962.976	-0.400
963.226	0.600
963.475	1.200
963.724	1.500
963.974	-1.900
964.223	-1.500
964.472	-0.600
964.722	1.500
964.971	-3.000
965.220	-0.800
965.470	-3.900
965.719	1.300
965.968	-0.300
966.218	-1.600
966.467	-1.300
966.716	2.000
966.966	-1.800
967.215	1.500
967.464	-0.400
967.713	2.000
967.963	-1.000
968.212	-1.000
968.461	0.100
968.710	0.900
968.960	-0.100
969.209	-0.200
969.458	0.800
969.707	-1.300
969.956	0.200
970.206	-1.000
970.455	-1.800
970.704	-0.700
970.953	-1.300
971.202	1.500
971.451	-0.900
971.701	1.600
971.950	0.100
972.199	-0.600
972.448	3.100
972.697	0.900
972.946	-0.600
973.195	1.900
973.444	2.300
973.694	1.400
973.943	0.200
974.192	0.600
974.441	-0.100
974.690	0.200
974.939	-2.300
975.188	1.600
975.437	1.400
975.686	-0.600
975.935	3.100
976.184	0.400
976.433	0.700
976.682	-0.700
976.931	-2.900
977.180	-0.200
977.429	-2.700
977.678	2.300
977.927	0.600
978.176	-0.100
978.425	-0.800
978.674	0.300
978.923	-0.800
979.172	-1.100
979.421	-1.400
979.670	2.100
979.918	-1.000
980.167	-0.800
980.416	-1.800
980.665	0.700
980.914	-1.400
981.163	0.500
981.412	0.500
981.661	1.300
981.909	-1.400
982.158	0.300
982.407	-2.300
982.656	0.700
982.905	1.200
983.154	-0.200
983.402	1.100
983.651	-0.500
983.900	1.300
984.149	-0.600
984.398	0.300
984.646	-0.400
984.895	-1.700
985.144	0.200
985.393	2.200
985.641	2.100
985.890	-2.900
986.139	2.500
986.387	1.900
986.636	-1.200
986.885	-2.200
987.134	1.700
987.382	-0.900
987.631	-1.800
987.880	-1.000
988.128	1.200
988.377	-0.200
988.626	-1.100
988.874	-4.900
989.123	-1.000
989.372	-1.300
989.620	2.000
989.869	0.200
990.117	1.900
990.366	1.500
990.615	-2.000
990.863	1.000
991.112	-0.300
991.360	-0.800
991.609	0.600
991.857	-0.100
992.106	2.200
992.355	0.300
992.603	0.000
992.852	-0.300
993.100	-0.900
993.349	-0.600
993.597	-1.400
993.846	-1.400
994.094	-3.000
994.343	-1.900
994.591	-1.200
994.840	-1.700
995.088	-2.100
995.336	0.500
995.585	-0.100
995.833	1.200
996.082	2.700
996.330	-2.500
996.579	-0.500
996.827	-1.900
997.075	-1.100
997.324	-3.800
997.572	-2.100
997.821	-1.000
998.069	-1.900
998.317	0.900
998.566	-0.400
998.814	2.300
999.062	-1.400
999.311	-1.600
999.559	-0.400
999.807	0.400
1000.056	0.300
1000.304	0.800
1000.552	-1.600
1000.801	-0.900
1001.049	1.300
1001.297	0.300
1001.546	-2.400
1001.794	1.600
1002.042	-1.400
1002.290	0.000
1002.539	-2.200
1002.787	0.400
1003.035	4.600
1003.283	1.400
1003.531	2.400
1003.780	0.200
1004.028	-1.200
1004.276	-1.600
1004.524	-1.100
1004.772	-0.600
1005.021	1.900
1005.269	-1.700
1005.517	-1.100
1005.765	-1.900
1006.013	-3.600
1006.261	0.100
1006.509	1.500
1006.758	0.900
1007.006	1.200
1007.254	-2.700
1007.502	3.700
1007.750	-5.600
1007.998	0.700
1008.246	-1.200
1008.494	-2.600
1008.742	-1.500
1008.990	-0.800
1009.238	-1.500
1009.486	-2.900
1009.735	-1.100
1009.983	-0.500
1010.231	3.100
1010.479	-0.600
1010.727	-0.800
1010.975	0.000
1011.223	-0.700
1011.471	-2.000
1011.719	-1.400
1011.967	2.000
1012.214	-0.800
1012.462	-3.100
1012.710	1.300
1012.958	2.300
1013.206	-2.500
1013.454	2.000
1013.702	-1.300
1013.950	-2.100
1014.198	0.300
1014.446	-1.400
1014.694	-0.300
1014.942	3.700
1015.189	0.500
1015.437	-1.600
1015.685	1.000
1015.933	1.000
1016.181	0.000
1016.429	1.100
1016.677	0.200
1016.924	-1.400
1017.172	-1.500
1017.420	-0.900
1017.668	-3.700
1017.916	-0.600
1018.163	-0.600
1018.411	-0.900
1018.659	3.400
1018.907	-0.700
1019.155	-1.400
1019.402	-2.200
1019.650	0.800
1019.898	2.200
1020.145	-3.000
1020.393	1.800
1020.641	-2.500
1020.889	-0.600
1021.136	1.900
1021.384	2.000
1021.632	2.500
1021.879	-0.800
1022.127	0.800
1022.375	-0.300
1022.622	-1.800
1022.870	0.200
1023.118	0.000
1023.365	0.500
1023.613	-0.600
1023.861	-0.500
1024.108	-1.300
1024.356	1.200
1024.603	0.500
1024.851	-0.300
1025.099	0.200
1025.346	-0.800
1025.594	-5.200
1025.841	2.400
1026.089	-2.000
1026.336	-1.000
1026.584	1.100
1026.832	2.300
1027.079	1.300
1027.327	0.700
1027.574	-1.000
1027.822	2.800
1028.069	-3.300
1028.317	-3.000
1028.564	0.000
1028.812	0.400
1029.059	-0.400
1029.306	-3.500
1029.554	1.900
1029.801	0.400
1030.049	0.900
1030.296	-1.600
1030.544	-2.700
1030.791	0.400
1031.039	1.400
1031.286	2.900
1031.533	0.500
1031.781	-0.800
1032.028	4.500
1032.276	3.100
1032.523	-0.900
1032.770	-1.400
1033.018	2.000
1033.265	0.400
1033.512	0.400
1033.760	0.000
1034.007	1.200
1034.254	-0.800
1034.502	1.300
1034.749	2.500
1034.996	-3.200
1035.243	-2.200
1035.491	0.600
1035.738	-2.000
1035.985	0.000
1036.233	1.300
1036.480	-0.300
1036.727	0.600
1036.974	0.500
1037.222	-1.400
1037.469	1.300
1037.716	2.000
1037.963	-1.900
1038.210	2.100
1038.458	0.300
1038.705	0.400
1038.952	-2.600
1039.199	-0.900
1039.446	-2.300
1039.693	0.700
1039.941	1.500
1040.188	-1.300
1040.435	2.400
1040.682	-0.300
1040.929	1.700
1041.176	-2.000
1041.423	0.600
1041.671	-1.000
1041.918	0.500
1042.165	-1.400
1042.412	-2.800
1042.659	-2.100
1042.906	2.400
1043.153	0.200
1043.400	-1.000
1043.647	-0.600
1043.894	-4.600
1044.141	-0.200
1044.388	1.700
1044.635	0.800
1044.882	1.000
1045.129	-2.200
1045.376	0.800
1045.623	1.500
1045.870	-0.700
1046.117	0.200
1046.364	0.000
1046.611	0.200
1046.858	1.500
1047.105	-2.100
1047.352	0.600
1047.599	2.000
1047.846	-1.500
1048.093	-0.600
1048.340	-0.300
1048.587	1.900
1048.833	2.000
1049.080	0.500
1049.327	-0.600
1049.574	0.000
1049.821	0.600
1050.068	0.500
1050.315	0.400
1050.561	1.500
1050.808	-1.600
1051.055	1.900
1051.302	1.000
1051.549	0.700
1051.796	-1.700
1052.042	1.000
1052.289	-0.500
1052.536	2.900
1052.783	1.900
1053.030	1.000
1053.276	-2.400
1053.523	2.400
1053.770	1.600
1054.017	1.000
1054.263	0.200
1054.510	-0.200
1054.757	-0.300
1055.003	2.000
1055.250	1.600
1055.497	-1.300
1055.744	1.400
1055.990	0.600
1056.237	0.200
1056.484	-2.400
1056.730	-1.700
1056.977	-2.400
1057.224	-0.100
1057.470	-1.700
1057.717	0.500
1057.963	-2.000
1058.210	-1.300
1058.457	-2.400
1058.703	2.200
1058.950	3.500
1059.197	1.000
1059.443	1.000
1059.690	2.400
1059.936	-0.800
1060.183	-1.700
1060.429	-0.600
1060.676	1.800
1060.922	0.900
1061.169	2.500
1061.416	0.000
1061.662	-1.400
1061.909	0.100
1062.155	-0.700
1062.402	4.500
1062.648	0.500
1062.895	0.600
1063.141	-3.200
1063.387	0.300
1063.634	0.400
1063.880	0.700
1064.127	2.500
1064.373	0.400
1064.620	0.400
1064.866	-1.800
1065.113	3.100
1065.359	4.400
1065.605	0.800
1065.852	3.000
1066.098	1.600
1066.345	0.000
1066.591	0.200
1066.837	0.400
1067.084	-0.600
1067.330	0.000
1067.576	0.500
1067.823	0.500
1068.069	-0.300
1068.315	3.500
1068.562	1.500
1068.808	-3.000
1069.054	0.200
1069.301	1.300
1069.547	0.700
1069.793	1.300
1070.040	3.300
1070.286	0.700
1070.532	0.800
1070.778	-2.400
1071.025	-1.800
1071.271	-0.100
1071.517	2.000
1071.763	2.200
1072.009	-0.400
1072.256	-0.800
1072.502	1.500
1072.748	-2.200
1072.994	4.700
1073.240	0.900
1073.487	-1.400
1073.733	1.100
1073.979	0.000
1074.225	4.100
1074.471	-1.000
1074.717	-0.800
1074.964	3.100
1075.210	-0.800
1075.456	-0.100
1075.702	0.500
1075.948	-3.600
1076.194	0.200
1076.440	-1.300
1076.686	2.300
1076.932	-1.000
1077.178	-1.800
1077.425	-3.300
1077.671	1.500
1077.917	-0.700
1078.163	0.200
1078.409	0.800
1078.655	-0.600
1078.901	1.100
1079.147	1.800
1079.393	1.900
1079.639	1.500
1079.885	0.600
1080.131	0.300
1080.377	2.700
1080.623	-0.700
1080.869	0.600
1081.115	-1.500
1081.361	0.500
1081.606	0.800
1081.852	-2.500
1082.098	1.500
1082.344	2.200
1082.590	-0.500
1082.836	-2.600
1083.082	-1.600
1083.328	-1.300
1083.574	2.100
1083.820	1.000
1084.065	-1.200
1084.311	2.200
1084.557	1.100
1084.803	2.300
1085.049	-2.900
1085.295	-0.900
1085.541	-0.900
1085.786	-2.500
1086.032	2.000
1086.278	-0.600
1086.524	-0.200
1086.770	-0.500
1087.015	1.500
1087.261	3.700
1087.507	2.200
1087.753	0.500
1087.998	-1.600
1088.244	2.700
1088.490	0.300
1088.736	-0.700
1088.981	-3.300
1089.227	1.200
1089.473	0.800
1089.719	2.100
1089.964	-2.800
1090.210	0.200
1090.456	1.600
1090.701	1.700
1090.947	0.300
1091.193	2.400
1091.438	0.700
1091.684	0.800
1091.930	-0.100
1092.175	-0.300
1092.421	-0.500
1092.666	-2.200
1092.912	3.400
1093.158	1.100
1093.403	0.600
1093.649	-2.000
1093.894	-1.800
1094.140	3.700
1094.386	0.300
1094.631	-0.800
1094.877	0.100
1095.122	1.500
1095.368	-0.800
1095.613	2.100
1095.859	-0.400
1096.104	0.000
1096.350	-0.200
1096.595	-0.800
1096.841	1.400
1097.086	0.300
1097.332	-1.600
1097.577	-0.600
1097.823	-5.000
1098.068	-0.600
1098.314	-1.900
1098.559	0.400
1098.805	1.200
1099.050	-3.700
1099.295	2.400
1099.541	-0.400
1099.786	0.500
+++++End Spectral Data+++++
