Spectrometer Data
EN
------------------------------
Saving Time:Thu, Jan 22, 2026 11:59:50
Device Name:Aurora 4000
Version Info:V9_84
Serial Number:220120190816098402001100
Integral Time(æs):4000
Avg Count:10
Smoothness:0
Data Type:(0 1)Wavelength-Delete Dark
X-Axis Unit:nm
Y-Axis Unit:counts
Pixel Count:3482
Reserve0:250
Other Description:
+++++Begin Spectral Data+++++
200.149	0.500
200.421	0.700
200.693	1.100
200.966	0.000
201.238	0.100
201.510	1.000
201.782	-0.100
202.054	1.500
202.326	0.600
202.598	1.100
202.870	-1.000
203.142	1.200
203.414	-0.400
203.686	1.000
203.958	-0.300
204.230	0.200
204.502	-0.800
204.774	0.700
205.046	0.900
205.318	-1.600
205.590	0.700
205.861	0.000
206.133	0.700
206.405	0.700
206.677	0.400
206.949	1.800
207.221	-0.800
207.493	0.800
207.765	0.500
208.037	0.100
208.308	-0.100
208.580	-0.700
208.852	1.900
209.124	-0.100
209.396	0.300
209.668	1.200
209.939	1.100
210.211	0.600
210.483	0.300
210.755	1.600
211.027	-0.400
211.298	-0.100
211.570	1.200
211.842	0.400
212.114	0.800
212.385	0.500
212.657	0.900
212.929	0.700
213.200	0.500
213.472	0.600
213.744	1.700
214.016	1.000
214.287	0.200
214.559	0.300
214.831	2.400
215.102	1.000
215.374	-0.300
215.645	0.500
215.917	0.700
216.189	1.000
216.460	1.200
216.732	0.900
217.004	0.400
217.275	0.900
217.547	0.100
217.818	0.900
218.090	-1.000
218.361	-0.100
218.633	0.800
218.904	0.400
219.176	0.700
219.448	0.800
219.719	0.000
219.991	-0.500
220.262	0.400
220.534	0.600
220.805	1.200
221.076	0.500
221.348	-0.100
221.619	1.300
221.891	1.300
222.162	0.900
222.434	1.800
222.705	-0.300
222.977	1.300
223.248	0.300
223.519	1.600
223.791	0.500
224.062	0.900
224.333	0.200
224.605	0.200
224.876	1.700
225.148	0.500
225.419	1.400
225.690	2.100
225.962	0.400
226.233	-0.100
226.504	0.300
226.775	1.200
227.047	-0.400
227.318	-0.500
227.589	1.900
227.861	0.300
228.132	0.200
228.403	-0.600
228.674	1.600
228.946	0.700
229.217	0.200
229.488	0.200
229.759	1.200
230.030	0.000
230.302	0.000
230.573	1.600
230.844	0.600
231.115	0.800
231.386	0.500
231.657	1.100
231.929	0.100
232.200	0.000
232.471	1.800
232.742	0.300
233.013	0.800
233.284	1.600
233.555	0.800
233.826	0.600
234.097	2.100
234.369	-0.500
234.640	0.900
234.911	1.600
235.182	-0.200
235.453	1.600
235.724	2.400
235.995	0.800
236.266	0.900
236.537	0.700
236.808	0.700
237.079	-0.300
237.350	0.200
237.621	-0.400
237.892	1.600
238.163	1.200
238.434	0.700
238.705	0.600
238.975	1.300
239.246	1.100
239.517	1.300
239.788	1.300
240.059	0.400
240.330	1.600
240.601	2.600
240.872	1.700
241.143	1.400
241.413	0.700
241.684	0.800
241.955	1.100
242.226	-0.300
242.497	0.900
242.768	1.100
243.038	1.300
243.309	1.900
243.580	0.500
243.851	0.400
244.122	0.400
244.392	0.600
244.663	0.600
244.934	1.700
245.205	0.600
245.475	-0.400
245.746	-0.100
246.017	0.600
246.288	1.400
246.558	1.500
246.829	0.600
247.100	1.800
247.370	1.200
247.641	0.200
247.912	1.700
248.182	1.700
248.453	1.000
248.724	1.100
248.994	0.400
249.265	0.900
249.535	-0.300
249.806	1.100
250.077	0.700
250.347	1.200
250.618	1.400
250.888	1.100
251.159	0.500
251.430	1.500
251.700	0.700
251.971	0.700
252.241	0.400
252.512	0.900
252.782	0.500
253.053	-0.300
253.323	1.200
253.594	0.300
253.864	1.700
254.135	1.100
254.405	0.500
254.676	-0.300
254.946	0.900
255.216	1.800
255.487	-0.500
255.757	0.400
256.028	0.100
256.298	1.300
256.569	0.600
256.839	0.700
257.109	0.600
257.380	1.100
257.650	1.100
257.920	0.800
258.191	0.500
258.461	1.300
258.731	0.300
259.002	0.100
259.272	1.200
259.542	1.700
259.813	0.900
260.083	0.000
260.353	1.400
260.624	1.600
260.894	1.500
261.164	0.900
261.434	1.800
261.705	0.900
261.975	1.600
262.245	1.200
262.515	0.800
262.786	1.400
263.056	0.800
263.326	1.100
263.596	0.900
263.866	1.300
264.137	-0.300
264.407	1.800
264.677	0.300
264.947	1.000
265.217	1.500
265.487	0.900
265.757	0.500
266.027	1.200
266.298	1.600
266.568	0.800
266.838	0.600
267.108	1.300
267.378	1.900
267.648	1.200
267.918	2.700
268.188	1.000
268.458	-0.200
268.728	1.800
268.998	1.500
269.268	1.500
269.538	0.400
269.808	0.000
270.078	1.600
270.348	1.100
270.618	1.000
270.888	0.800
271.158	1.300
271.428	0.400
271.698	1.300
271.968	1.400
272.238	0.800
272.508	1.600
272.778	2.000
273.048	1.000
273.318	1.400
273.587	0.700
273.857	1.800
274.127	-0.300
274.397	0.800
274.667	2.000
274.937	0.600
275.207	0.500
275.476	0.700
275.746	0.900
276.016	0.600
276.286	0.600
276.556	1.000
276.826	0.700
277.095	1.700
277.365	1.700
277.635	0.800
277.905	0.800
278.174	1.000
278.444	1.000
278.714	0.900
278.984	-0.300
279.253	2.100
279.523	0.600
279.793	1.400
280.062	-0.200
280.332	1.300
280.602	0.700
280.871	2.000
281.141	0.100
281.411	2.100
281.680	1.000
281.950	1.100
282.220	0.200
282.489	1.400
282.759	1.300
283.029	0.400
283.298	0.400
283.568	0.700
283.837	0.300
284.107	2.900
284.376	1.200
284.646	2.000
284.916	0.100
285.185	1.600
285.455	0.300
285.724	0.600
285.994	0.000
286.263	-0.100
286.533	0.800
286.802	0.800
287.072	1.400
287.341	0.600
287.611	0.600
287.880	1.400
288.149	-0.200
288.419	0.400
288.688	1.200
288.958	1.400
289.227	0.200
289.497	-0.500
289.766	1.100
290.035	1.200
290.305	-0.100
290.574	0.300
290.844	1.200
291.113	0.800
291.382	0.400
291.652	2.400
291.921	0.800
292.190	1.000
292.460	1.700
292.729	1.400
292.998	1.700
293.268	0.900
293.537	0.500
293.806	0.100
294.075	0.400
294.345	-0.500
294.614	0.900
294.883	-0.400
295.152	2.000
295.422	0.900
295.691	0.800
295.960	0.500
296.229	0.800
296.498	-2.000
296.768	1.200
297.037	-0.200
297.306	1.200
297.575	0.400
297.844	1.300
298.114	0.800
298.383	0.000
298.652	0.200
298.921	-0.300
299.190	1.300
299.459	-0.500
299.728	0.600
299.997	0.600
300.266	0.600
300.536	0.400
300.805	-0.400
301.074	-0.300
301.343	-0.800
301.612	0.200
301.881	1.200
302.150	0.200
302.419	0.500
302.688	0.900
302.957	1.100
303.226	-0.100
303.495	1.900
303.764	-0.500
304.033	0.400
304.302	1.600
304.571	-0.600
304.840	0.500
305.109	0.100
305.378	1.200
305.646	-0.400
305.915	-1.000
306.184	-0.100
306.453	1.300
306.722	0.000
306.991	1.000
307.260	1.200
307.529	0.300
307.798	-0.100
308.066	0.300
308.335	1.400
308.604	-0.500
308.873	0.900
309.142	0.800
309.411	0.000
309.679	0.700
309.948	-1.100
310.217	0.500
310.486	0.200
310.755	0.300
311.023	0.800
311.292	0.400
311.561	-1.100
311.830	-0.300
312.098	0.700
312.367	0.700
312.636	-0.200
312.904	0.800
313.173	-0.600
313.442	-0.200
313.711	0.500
313.979	0.000
314.248	0.500
314.517	0.200
314.785	1.500
315.054	0.500
315.322	0.600
315.591	0.100
315.860	0.400
316.128	0.500
316.397	0.900
316.665	1.700
316.934	1.400
317.203	-0.100
317.471	-0.700
317.740	-0.600
318.008	-0.300
318.277	0.400
318.545	-0.200
318.814	0.600
319.082	0.700
319.351	0.100
319.619	0.500
319.888	0.800
320.156	1.000
320.425	1.000
320.693	1.200
320.962	-0.100
321.230	0.000
321.499	-0.400
321.767	-0.200
322.036	0.800
322.304	0.800
322.573	1.600
322.841	0.600
323.109	0.300
323.378	1.100
323.646	1.100
323.914	0.800
324.183	-0.800
324.451	0.400
324.720	0.700
324.988	0.300
325.256	-0.900
325.525	0.100
325.793	0.900
326.061	0.900
326.330	0.300
326.598	-0.100
326.866	-0.200
327.134	0.500
327.403	-0.900
327.671	0.100
327.939	-0.700
328.207	0.000
328.476	0.100
328.744	-0.700
329.012	0.800
329.280	0.100
329.549	0.400
329.817	0.700
330.085	-1.100
330.353	0.300
330.621	0.100
330.889	0.500
331.158	-0.200
331.426	-0.300
331.694	0.800
331.962	0.800
332.230	-0.400
332.498	-0.100
332.766	0.800
333.035	-0.500
333.303	0.800
333.571	-0.300
333.839	0.700
334.107	0.600
334.375	0.300
334.643	0.500
334.911	0.500
335.179	-0.100
335.447	1.300
335.715	-0.600
335.983	0.900
336.251	0.600
336.519	-0.300
336.787	0.600
337.055	0.400
337.323	1.100
337.591	2.100
337.859	1.400
338.127	0.000
338.395	0.300
338.663	-0.200
338.931	-0.700
339.199	1.100
339.467	0.700
339.734	0.800
340.002	1.000
340.270	0.100
340.538	-0.300
340.806	-0.300
341.074	0.100
341.342	1.000
341.610	1.200
341.877	-0.200
342.145	0.400
342.413	-0.100
342.681	-0.300
342.949	0.800
343.216	-0.100
343.484	0.000
343.752	1.400
344.020	1.400
344.288	0.000
344.555	0.000
344.823	1.300
345.091	-0.300
345.359	-0.200
345.626	1.800
345.894	0.600
346.162	1.500
346.429	0.300
346.697	0.100
346.965	0.400
347.232	0.000
347.500	0.800
347.768	-0.600
348.035	-0.200
348.303	1.500
348.571	0.700
348.838	0.800
349.106	0.100
349.374	1.100
349.641	-1.200
349.909	0.900
350.176	0.100
350.444	0.700
350.712	0.200
350.979	-0.100
351.247	-0.100
351.514	0.400
351.782	0.100
352.049	0.800
352.317	1.300
352.584	-0.700
352.852	1.400
353.119	0.800
353.387	1.000
353.654	1.200
353.922	0.200
354.189	1.000
354.457	0.300
354.724	0.600
354.992	1.300
355.259	0.300
355.526	0.200
355.794	0.700
356.061	-0.700
356.329	0.100
356.596	-0.200
356.863	0.100
357.131	1.200
357.398	0.200
357.666	1.200
357.933	0.400
358.200	0.500
358.468	-0.700
358.735	1.100
359.002	0.600
359.270	0.100
359.537	-0.200
359.804	0.900
360.071	1.000
360.339	-0.200
360.606	0.600
360.873	0.700
361.141	0.900
361.408	0.600
361.675	1.600
361.942	-0.100
362.210	0.400
362.477	0.300
362.744	1.100
363.011	0.800
363.278	0.800
363.546	1.000
363.813	-0.700
364.080	1.200
364.347	0.900
364.614	-0.400
364.881	-0.100
365.148	-1.600
365.416	0.400
365.683	0.100
365.950	0.500
366.217	0.200
366.484	1.000
366.751	0.200
367.018	1.600
367.285	1.200
367.552	-0.300
367.819	0.500
368.086	0.500
368.354	-0.200
368.621	0.000
368.888	-0.700
369.155	1.800
369.422	1.200
369.689	-0.500
369.956	-0.200
370.223	0.100
370.490	0.000
370.757	0.800
371.024	1.600
371.290	1.700
371.557	1.300
371.824	0.500
372.091	-0.300
372.358	0.700
372.625	1.100
372.892	0.700
373.159	-0.100
373.426	1.100
373.693	0.800
373.960	1.000
374.226	0.400
374.493	0.000
374.760	0.200
375.027	0.600
375.294	-0.100
375.561	0.700
375.827	0.800
376.094	0.300
376.361	0.200
376.628	1.100
376.895	1.600
377.161	-0.200
377.428	1.000
377.695	2.200
377.962	0.500
378.228	-0.100
378.495	1.700
378.762	1.200
379.029	-0.300
379.295	0.100
379.562	-0.800
379.829	-0.200
380.095	1.400
380.362	-0.500
380.629	0.300
380.896	0.400
381.162	1.700
381.429	-1.000
381.695	0.100
381.962	0.900
382.229	0.400
382.495	0.600
382.762	-0.400
383.029	-1.200
383.295	-0.200
383.562	1.000
383.828	0.800
384.095	0.500
384.361	0.400
384.628	0.300
384.895	0.800
385.161	0.600
385.428	1.400
385.694	-0.100
385.961	-0.400
386.227	1.000
386.494	0.500
386.760	0.400
387.027	1.700
387.293	1.200
387.560	-0.400
387.826	-0.300
388.092	-0.600
388.359	0.200
388.625	-0.100
388.892	0.200
389.158	-0.600
389.425	1.600
389.691	0.800
389.957	-0.500
390.224	-0.400
390.490	0.200
390.757	0.000
391.023	-0.100
391.289	0.600
391.556	0.500
391.822	0.800
392.088	0.600
392.355	1.100
392.621	1.400
392.887	0.500
393.154	2.100
393.420	-1.500
393.686	-0.200
393.952	0.900
394.219	0.400
394.485	2.400
394.751	-0.300
395.017	-0.200
395.284	0.600
395.550	0.000
395.816	0.600
396.082	-0.100
396.349	0.900
396.615	0.300
396.881	0.300
397.147	0.500
397.413	1.200
397.679	0.300
397.946	-0.400
398.212	0.800
398.478	0.400
398.744	1.100
399.010	-0.500
399.276	0.000
399.542	0.000
399.808	1.100
400.075	0.500
400.341	-0.600
400.607	1.400
400.873	-0.600
401.139	0.700
401.405	-0.400
401.671	1.300
401.937	-0.800
402.203	1.000
402.469	0.500
402.735	0.700
403.001	1.000
403.267	-0.600
403.533	0.500
403.799	1.900
404.065	-0.700
404.331	0.300
404.597	0.600
404.863	1.800
405.129	0.800
405.395	-0.400
405.661	1.100
405.927	0.400
406.192	0.000
406.458	-0.100
406.724	1.600
406.990	1.300
407.256	0.500
407.522	1.000
407.788	2.200
408.054	0.700
408.319	0.200
408.585	-0.800
408.851	0.300
409.117	0.500
409.383	-0.400
409.649	1.200
409.914	0.900
410.180	0.700
410.446	0.600
410.712	0.100
410.977	0.500
411.243	-0.500
411.509	0.700
411.775	1.500
412.040	-1.300
412.306	1.600
412.572	-0.300
412.838	0.600
413.103	0.400
413.369	-0.100
413.635	1.000
413.900	-0.400
414.166	0.500
414.432	0.900
414.697	0.900
414.963	0.700
415.229	-0.300
415.494	1.100
415.760	-0.100
416.025	-1.100
416.291	-0.800
416.557	0.900
416.822	-0.300
417.088	1.000
417.353	-0.300
417.619	0.400
417.884	0.100
418.150	0.600
418.416	1.300
418.681	0.200
418.947	0.600
419.212	0.800
419.478	1.300
419.743	0.200
420.009	0.700
420.274	0.300
420.540	0.800
420.805	-1.200
421.071	0.400
421.336	1.900
421.601	0.000
421.867	-0.900
422.132	0.400
422.398	0.300
422.663	0.300
422.929	0.900
423.194	0.700
423.459	-0.700
423.725	0.600
423.990	0.300
424.256	0.500
424.521	1.300
424.786	-0.700
425.052	-0.700
425.317	-1.000
425.582	0.500
425.848	0.500
426.113	1.600
426.378	-0.300
426.643	0.200
426.909	-0.800
427.174	-1.200
427.439	0.900
427.705	-0.400
427.970	0.100
428.235	0.900
428.500	1.400
428.766	-0.300
429.031	0.300
429.296	1.200
429.561	1.000
429.826	0.100
430.092	-1.300
430.357	1.600
430.622	0.100
430.887	-0.400
431.152	0.400
431.417	0.900
431.683	2.100
431.948	0.800
432.213	0.500
432.478	-0.500
432.743	0.100
433.008	0.700
433.273	0.400
433.538	0.800
433.803	0.400
434.069	0.800
434.334	1.000
434.599	-0.200
434.864	0.800
435.129	0.800
435.394	1.000
435.659	1.000
435.924	0.700
436.189	0.000
436.454	0.300
436.719	0.600
436.984	0.500
437.249	0.300
437.514	-0.200
437.779	0.100
438.044	0.700
438.309	-0.900
438.574	1.100
438.838	0.300
439.103	1.300
439.368	0.600
439.633	0.500
439.898	1.100
440.163	0.400
440.428	0.200
440.693	-0.300
440.958	-0.200
441.222	-1.000
441.487	-0.100
441.752	1.100
442.017	-1.000
442.282	-0.400
442.547	-0.700
442.811	1.100
443.076	0.900
443.341	-0.500
443.606	1.000
443.871	1.000
444.135	-0.400
444.400	0.200
444.665	-0.700
444.930	1.000
445.194	1.700
445.459	1.500
445.724	-0.600
445.989	0.200
446.253	0.200
446.518	-0.500
446.783	-0.100
447.047	0.000
447.312	0.700
447.577	0.700
447.841	-0.100
448.106	1.100
448.371	-0.100
448.635	0.000
448.900	0.200
449.165	0.900
449.429	1.000
449.694	-0.600
449.958	0.200
450.223	-0.600
450.488	1.200
450.752	0.700
451.017	0.800
451.281	0.600
451.546	0.500
451.810	0.300
452.075	1.600
452.339	0.400
452.604	1.200
452.868	0.100
453.133	0.100
453.397	-0.100
453.662	0.600
453.926	0.200
454.191	0.800
454.455	2.100
454.720	-0.800
454.984	0.100
455.249	0.300
455.513	0.200
455.778	1.400
456.042	0.500
456.306	1.900
456.571	0.100
456.835	0.300
457.100	0.400
457.364	1.500
457.628	-0.200
457.893	-0.500
458.157	0.100
458.421	0.200
458.686	0.400
458.950	-0.200
459.214	1.800
459.479	0.100
459.743	0.300
460.007	0.100
460.272	0.300
460.536	0.800
460.800	0.500
461.064	1.100
461.329	-0.200
461.593	0.800
461.857	0.200
462.121	1.600
462.386	0.200
462.650	-0.400
462.914	1.100
463.178	0.600
463.442	-0.700
463.707	0.400
463.971	0.100
464.235	0.200
464.499	-0.100
464.763	-0.200
465.027	0.700
465.292	0.900
465.556	1.300
465.820	0.700
466.084	0.900
466.348	1.400
466.612	1.700
466.876	-0.200
467.140	1.000
467.404	-0.400
467.668	1.200
467.933	0.000
468.197	1.800
468.461	-0.500
468.725	0.500
468.989	1.900
469.253	0.600
469.517	0.500
469.781	0.300
470.045	0.900
470.309	1.600
470.573	-0.800
470.837	1.700
471.101	0.500
471.365	0.500
471.629	0.500
471.892	1.000
472.156	0.000
472.420	1.400
472.684	0.900
472.948	1.000
473.212	0.600
473.476	-1.000
473.740	0.700
474.004	1.200
474.268	1.100
474.531	0.500
474.795	0.500
475.059	-0.400
475.323	-0.200
475.587	1.000
475.851	0.000
476.114	0.100
476.378	0.900
476.642	0.400
476.906	0.700
477.170	1.200
477.433	0.500
477.697	1.000
477.961	0.000
478.225	-0.500
478.488	-1.400
478.752	0.300
479.016	1.000
479.280	0.000
479.543	1.600
479.807	0.300
480.071	0.000
480.334	1.600
480.598	1.100
480.862	0.100
481.125	0.300
481.389	-1.200
481.653	1.000
481.916	0.700
482.180	0.300
482.444	1.100
482.707	0.200
482.971	-0.100
483.234	0.900
483.498	-0.500
483.762	-0.600
484.025	1.300
484.289	1.500
484.552	1.000
484.816	1.300
485.079	-0.500
485.343	0.300
485.607	1.900
485.870	-0.500
486.134	-0.200
486.397	2.000
486.661	0.100
486.924	0.800
487.188	1.000
487.451	0.000
487.715	0.200
487.978	0.800
488.241	0.400
488.505	0.800
488.768	-0.300
489.032	0.300
489.295	0.900
489.559	0.500
489.822	-0.300
490.085	1.100
490.349	0.900
490.612	0.000
490.876	0.700
491.139	1.200
491.402	0.300
491.666	0.800
491.929	0.400
492.192	0.000
492.456	0.900
492.719	0.400
492.982	0.700
493.246	-0.400
493.509	-0.300
493.772	1.700
494.035	0.100
494.299	-0.300
494.562	1.100
494.825	1.100
495.088	-0.500
495.352	-0.400
495.615	-0.300
495.878	-0.100
496.141	0.700
496.405	0.700
496.668	0.900
496.931	1.400
497.194	0.700
497.457	-0.800
497.721	0.900
497.984	0.700
498.247	0.300
498.510	1.700
498.773	-0.100
499.036	1.400
499.299	1.100
499.562	1.300
499.826	0.100
500.089	0.100
500.352	0.500
500.615	-0.100
500.878	-0.300
501.141	1.300
501.404	-0.200
501.667	-0.600
501.930	0.200
502.193	2.000
502.456	1.300
502.719	-0.500
502.982	0.500
503.245	1.000
503.508	-0.300
503.771	1.300
504.034	0.100
504.297	1.100
504.560	1.800
504.823	0.700
505.086	2.200
505.349	1.200
505.612	1.300
505.875	0.200
506.138	-1.100
506.401	0.600
506.664	-0.600
506.927	0.200
507.189	0.900
507.452	1.600
507.715	0.300
507.978	1.800
508.241	2.100
508.504	0.900
508.767	0.200
509.029	1.200
509.292	0.300
509.555	0.500
509.818	1.500
510.081	-0.200
510.343	0.900
510.606	1.100
510.869	-0.800
511.132	0.500
511.395	0.000
511.657	0.400
511.920	0.600
512.183	0.600
512.446	0.300
512.708	0.000
512.971	1.300
513.234	-0.800
513.496	0.300
513.759	0.300
514.022	-0.800
514.284	1.100
514.547	1.400
514.810	0.700
515.072	0.600
515.335	0.500
515.598	0.600
515.860	0.500
516.123	1.000
516.386	0.800
516.648	1.200
516.911	0.200
517.173	-0.500
517.436	0.300
517.698	0.700
517.961	0.900
518.224	0.000
518.486	0.400
518.749	1.200
519.011	0.100
519.274	1.300
519.536	1.000
519.799	-0.100
520.061	0.600
520.324	1.100
520.586	0.200
520.849	0.300
521.111	1.700
521.374	0.500
521.636	-0.500
521.899	1.000
522.161	-0.100
522.423	0.000
522.686	0.800
522.948	-0.700
523.211	0.700
523.473	0.900
523.736	0.800
523.998	0.600
524.260	-0.300
524.523	-0.300
524.785	-0.100
525.047	1.200
525.310	1.200
525.572	-0.100
525.834	0.300
526.097	0.400
526.359	-0.100
526.621	0.500
526.884	1.200
527.146	0.000
527.408	0.500
527.670	2.200
527.933	-0.300
528.195	0.600
528.457	-0.400
528.719	0.600
528.982	-1.600
529.244	0.500
529.506	0.600
529.768	-1.000
530.031	1.700
530.293	0.900
530.555	0.600
530.817	1.000
531.079	-0.800
531.342	-1.100
531.604	0.100
531.866	0.500
532.128	0.700
532.390	0.800
532.652	-0.700
532.914	0.300
533.176	-1.000
533.439	0.700
533.701	0.200
533.963	1.100
534.225	0.500
534.487	1.900
534.749	0.000
535.011	0.200
535.273	1.200
535.535	-0.400
535.797	0.500
536.059	0.900
536.321	0.300
536.583	0.000
536.845	0.800
537.107	1.000
537.369	1.400
537.631	1.000
537.893	1.000
538.155	1.100
538.417	0.500
538.679	0.400
538.941	0.500
539.203	1.100
539.465	1.100
539.727	-0.200
539.989	-0.600
540.251	-0.500
540.512	-0.200
540.774	0.300
541.036	-0.200
541.298	0.300
541.560	0.400
541.822	-0.100
542.084	-0.500
542.345	-0.300
542.607	0.900
542.869	-0.200
543.131	0.500
543.393	1.400
543.655	0.400
543.916	0.400
544.178	0.900
544.440	0.800
544.702	-0.100
544.963	0.100
545.225	0.800
545.487	0.200
545.749	0.300
546.010	-0.400
546.272	-0.800
546.534	0.800
546.795	-0.500
547.057	-0.600
547.319	0.200
547.581	1.500
547.842	0.700
548.104	-0.500
548.366	0.700
548.627	-0.800
548.889	0.400
549.150	1.700
549.412	-0.100
549.674	1.200
549.935	-0.700
550.197	0.300
550.459	-0.800
550.720	1.200
550.982	0.000
551.243	0.300
551.505	0.300
551.766	0.200
552.028	0.600
552.289	0.600
552.551	1.100
552.813	0.400
553.074	0.100
553.336	0.600
553.597	-1.500
553.859	0.000
554.120	0.000
554.382	0.300
554.643	0.800
554.904	-0.600
555.166	0.100
555.427	1.100
555.689	0.800
555.950	0.700
556.212	0.700
556.473	-0.300
556.735	0.200
556.996	0.100
557.257	0.400
557.519	0.800
557.780	1.900
558.041	-0.400
558.303	-1.000
558.564	0.300
558.826	-0.300
559.087	0.400
559.348	0.500
559.609	1.900
559.871	0.400
560.132	-0.200
560.393	1.200
560.655	-0.100
560.916	1.900
561.177	-0.300
561.439	-0.300
561.700	0.500
561.961	1.300
562.222	1.400
562.484	0.800
562.745	0.500
563.006	-0.200
563.267	0.400
563.528	0.500
563.790	-0.200
564.051	1.100
564.312	0.900
564.573	0.100
564.834	0.000
565.095	1.000
565.357	-0.600
565.618	0.500
565.879	0.200
566.140	0.300
566.401	0.400
566.662	-0.200
566.923	-0.600
567.184	-0.100
567.446	1.900
567.707	1.000
567.968	1.600
568.229	0.600
568.490	0.000
568.751	-0.500
569.012	1.200
569.273	-0.700
569.534	0.700
569.795	0.600
570.056	0.500
570.317	0.800
570.578	0.000
570.839	-0.700
571.100	0.900
571.361	-0.500
571.622	0.700
571.883	-0.800
572.144	0.700
572.405	0.300
572.666	0.600
572.927	0.700
573.188	1.000
573.449	-0.200
573.709	0.100
573.970	1.700
574.231	0.700
574.492	0.400
574.753	0.700
575.014	-0.100
575.275	-0.200
575.536	-0.600
575.796	0.500
576.057	0.100
576.318	0.700
576.579	0.100
576.840	1.300
577.100	0.900
577.361	-0.200
577.622	0.800
577.883	0.900
578.144	1.100
578.404	0.000
578.665	-0.700
578.926	1.000
579.187	0.600
579.447	0.200
579.708	1.000
579.969	0.300
580.229	-0.700
580.490	0.000
580.751	0.300
581.012	-0.200
581.272	1.200
581.533	0.200
581.794	-0.400
582.054	0.200
582.315	-0.500
582.576	1.900
582.836	0.500
583.097	1.500
583.357	0.400
583.618	-0.400
583.879	1.400
584.139	0.600
584.400	0.000
584.660	0.500
584.921	-0.700
585.181	0.800
585.442	1.000
585.703	0.100
585.963	-0.500
586.224	0.500
586.484	-0.500
586.745	-0.300
587.005	0.800
587.266	0.200
587.526	0.800
587.787	-1.100
588.047	-0.100
588.308	1.500
588.568	1.000
588.829	1.200
589.089	1.400
589.349	-0.200
589.610	-0.200
589.870	1.200
590.131	0.900
590.391	-0.200
590.651	0.200
590.912	0.200
591.172	0.400
591.433	0.000
591.693	0.300
591.953	0.300
592.214	0.800
592.474	-0.900
592.734	0.400
592.995	0.300
593.255	0.400
593.515	0.800
593.776	1.700
594.036	0.800
594.296	0.500
594.557	0.600
594.817	0.600
595.077	-0.800
595.337	0.300
595.598	1.700
595.858	0.400
596.118	0.600
596.378	0.000
596.639	0.600
596.899	0.200
597.159	0.300
597.419	1.800
597.679	-1.100
597.939	-0.300
598.200	2.100
598.460	0.100
598.720	0.400
598.980	0.800
599.240	0.800
599.500	0.900
599.761	0.000
600.021	0.600
600.281	0.100
600.541	-0.100
600.801	0.200
601.061	1.000
601.321	0.800
601.581	1.400
601.841	0.600
602.101	0.200
602.361	0.400
602.621	0.500
602.881	-0.500
603.142	0.800
603.402	1.800
603.662	-1.000
603.922	-1.100
604.182	-0.200
604.442	0.100
604.702	1.000
604.961	0.500
605.221	-0.100
605.481	-0.200
605.741	1.200
606.001	0.300
606.261	0.700
606.521	-1.700
606.781	1.500
607.041	0.200
607.301	0.400
607.561	-0.400
607.821	0.000
608.081	-0.700
608.340	0.600
608.600	-1.200
608.860	0.200
609.120	0.600
609.380	1.500
609.640	1.800
609.899	-0.900
610.159	-1.000
610.419	1.200
610.679	0.100
610.939	0.100
611.199	1.100
611.458	1.000
611.718	1.300
611.978	-0.100
612.238	0.800
612.497	0.100
612.757	-0.600
613.017	1.300
613.277	-0.300
613.536	0.700
613.796	-0.100
614.056	0.300
614.315	1.100
614.575	1.400
614.835	1.100
615.094	-1.100
615.354	-0.300
615.614	-0.200
615.873	0.300
616.133	1.600
616.393	1.100
616.652	0.700
616.912	1.200
617.171	-1.200
617.431	1.000
617.691	-0.100
617.950	0.700
618.210	1.200
618.469	0.500
618.729	0.300
618.989	0.500
619.248	0.600
619.508	0.000
619.767	-1.000
620.027	0.400
620.286	-1.200
620.546	0.000
620.805	1.100
621.065	1.300
621.324	0.900
621.584	0.500
621.843	0.500
622.103	-0.600
622.362	-1.100
622.622	0.200
622.881	2.000
623.140	0.900
623.400	1.600
623.659	-0.300
623.919	-0.300
624.178	0.100
624.437	0.700
624.697	1.100
624.956	0.200
625.216	0.200
625.475	0.800
625.734	0.300
625.994	1.200
626.253	0.200
626.512	0.200
626.772	0.000
627.031	-0.200
627.290	0.900
627.550	1.100
627.809	-1.300
628.068	-0.700
628.327	0.100
628.587	0.200
628.846	0.300
629.105	-0.300
629.364	-0.100
629.624	-0.200
629.883	0.700
630.142	0.500
630.401	-0.300
630.661	0.300
630.920	1.700
631.179	1.700
631.438	1.300
631.697	0.800
631.957	0.400
632.216	0.100
632.475	0.500
632.734	0.800
632.993	-0.400
633.252	1.800
633.511	-0.300
633.770	2.100
634.030	0.900
634.289	0.300
634.548	0.400
634.807	0.000
635.066	-0.400
635.325	1.100
635.584	0.600
635.843	0.300
636.102	0.300
636.361	-1.400
636.620	0.800
636.879	-0.300
637.138	0.600
637.397	0.900
637.656	0.200
637.915	1.300
638.174	0.300
638.433	0.200
638.692	-0.100
638.951	0.100
639.210	1.400
639.469	-0.600
639.728	1.500
639.987	-0.600
640.246	0.700
640.505	0.000
640.764	1.800
641.023	0.100
641.282	1.700
641.540	0.600
641.799	0.600
642.058	0.400
642.317	0.600
642.576	0.800
642.835	2.300
643.094	1.100
643.352	0.300
643.611	-0.200
643.870	0.600
644.129	1.400
644.388	0.800
644.646	1.200
644.905	0.600
645.164	0.100
645.423	0.000
645.682	0.500
645.940	-1.000
646.199	1.000
646.458	0.900
646.716	1.500
646.975	0.700
647.234	-0.300
647.493	1.200
647.751	0.900
648.010	-0.200
648.269	1.200
648.527	0.700
648.786	-0.700
649.045	-0.500
649.303	1.300
649.562	0.100
649.821	-0.800
650.079	0.500
650.338	0.600
650.597	0.000
650.855	-0.300
651.114	-0.100
651.372	0.400
651.631	-0.700
651.890	1.000
652.148	1.100
652.407	0.900
652.665	1.400
652.924	0.900
653.182	0.400
653.441	-1.100
653.699	0.500
653.958	0.400
654.216	-1.100
654.475	0.000
654.733	0.200
654.992	1.500
655.250	1.600
655.509	1.900
655.767	-0.100
656.026	1.000
656.284	0.600
656.543	0.400
656.801	0.600
657.059	0.900
657.318	0.500
657.576	2.000
657.835	0.000
658.093	-0.500
658.351	0.800
658.610	0.900
658.868	1.100
659.127	0.800
659.385	2.000
659.643	0.700
659.902	0.700
660.160	0.100
660.418	0.200
660.677	-0.400
660.935	0.900
661.193	-0.300
661.452	-0.700
661.710	1.500
661.968	1.700
662.226	0.700
662.485	-0.300
662.743	1.300
663.001	0.700
663.259	1.300
663.518	0.100
663.776	1.300
664.034	0.900
664.292	0.100
664.550	0.200
664.809	1.200
665.067	-0.100
665.325	0.100
665.583	-0.200
665.841	0.200
666.099	1.000
666.358	0.400
666.616	0.900
666.874	1.800
667.132	0.200
667.390	0.000
667.648	-1.400
667.906	0.900
668.164	1.200
668.423	0.600
668.681	1.300
668.939	1.100
669.197	1.100
669.455	2.000
669.713	0.300
669.971	0.700
670.229	0.500
670.487	-0.700
670.745	1.300
671.003	1.000
671.261	0.000
671.519	0.600
671.777	0.700
672.035	1.200
672.293	1.300
672.551	-0.100
672.809	0.700
673.067	1.400
673.325	0.400
673.583	0.600
673.841	1.300
674.099	1.300
674.356	1.000
674.614	0.200
674.872	0.300
675.130	0.800
675.388	0.900
675.646	0.800
675.904	-0.900
676.162	-0.500
676.419	1.200
676.677	1.500
676.935	0.000
677.193	-0.200
677.451	0.100
677.709	0.700
677.966	1.200
678.224	-0.200
678.482	0.700
678.740	-0.200
678.998	1.100
679.255	2.100
679.513	-0.300
679.771	1.000
680.029	0.000
680.286	0.600
680.544	1.300
680.802	0.300
681.059	1.200
681.317	0.100
681.575	0.000
681.833	1.300
682.090	0.300
682.348	0.900
682.606	0.300
682.863	0.600
683.121	-0.500
683.379	0.800
683.636	0.700
683.894	0.500
684.151	1.000
684.409	0.400
684.667	-0.100
684.924	1.000
685.182	0.700
685.439	0.100
685.697	0.500
685.955	1.300
686.212	0.800
686.470	0.500
686.727	0.000
686.985	0.300
687.242	0.600
687.500	0.800
687.757	0.700
688.015	0.900
688.272	0.000
688.530	0.600
688.787	1.300
689.045	2.100
689.302	1.600
689.560	0.000
689.817	1.000
690.075	0.800
690.332	0.400
690.589	1.000
690.847	0.400
691.104	1.100
691.362	1.300
691.619	1.100
691.876	0.100
692.134	-1.200
692.391	0.600
692.649	-0.300
692.906	1.000
693.163	1.000
693.421	-0.400
693.678	1.100
693.935	1.000
694.193	1.700
694.450	0.500
694.707	0.000
694.965	0.300
695.222	0.000
695.479	0.700
695.736	1.400
695.994	-2.500
696.251	-0.100
696.508	72.900
696.765	169.200
697.023	145.400
697.280	50.200
697.537	-0.800
697.794	-1.800
698.052	-0.200
698.309	-0.400
698.566	0.800
698.823	-1.100
699.080	-0.100
699.338	0.200
699.595	0.400
699.852	-1.300
700.109	0.200
700.366	0.400
700.623	-0.900
700.880	1.200
701.137	0.200
701.395	0.900
701.652	-0.700
701.909	0.200
702.166	0.900
702.423	0.400
702.680	0.700
702.937	0.400
703.194	0.200
703.451	0.400
703.708	0.200
703.965	0.600
704.222	0.300
704.479	-0.500
704.736	-1.500
704.993	0.100
705.250	-0.200
705.507	1.300
705.764	-0.100
706.021	0.900
706.278	-1.400
706.535	-8.500
706.792	53.200
707.049	98.800
707.306	56.100
707.563	4.200
707.820	-3.600
708.077	-0.200
708.334	1.200
708.591	0.000
708.847	-0.100
709.104	1.100
709.361	1.800
709.618	-0.600
709.875	-0.500
710.132	1.300
710.389	1.100
710.645	0.600
710.902	0.400
711.159	-0.400
711.416	1.300
711.673	0.400
711.930	0.000
712.186	0.500
712.443	0.200
712.700	0.000
712.957	-0.700
713.213	0.300
713.470	0.000
713.727	-0.400
713.984	0.200
714.240	-0.400
714.497	0.100
714.754	1.000
715.011	0.400
715.267	0.500
715.524	1.000
715.781	-0.500
716.037	0.600
716.294	0.200
716.551	0.800
716.807	0.200
717.064	0.200
717.321	-0.100
717.577	0.200
717.834	0.600
718.090	0.300
718.347	1.200
718.604	-0.800
718.860	-0.200
719.117	0.900
719.373	0.200
719.630	1.200
719.886	0.200
720.143	0.000
720.400	-0.400
720.656	0.700
720.913	-0.500
721.169	-0.700
721.426	-0.400
721.682	-0.500
721.939	0.100
722.195	0.800
722.452	-0.700
722.708	0.500
722.965	-0.200
723.221	0.900
723.478	0.400
723.734	0.900
723.990	0.100
724.247	0.100
724.503	-0.400
724.760	-0.300
725.016	0.900
725.273	0.700
725.529	0.100
725.785	1.100
726.042	-0.700
726.298	1.100
726.554	-0.700
726.811	0.000
727.067	0.000
727.323	-1.200
727.580	-6.500
727.836	-3.700
728.092	-1.600
728.349	-0.800
728.605	1.100
728.861	-0.600
729.118	0.400
729.374	-0.400
729.630	1.400
729.886	0.600
730.143	-1.300
730.399	0.500
730.655	-0.300
730.911	1.100
731.168	-0.300
731.424	1.000
731.680	-0.100
731.936	0.000
732.193	0.300
732.449	-0.800
732.705	-0.400
732.961	-0.300
733.217	0.800
733.473	0.100
733.730	-1.400
733.986	0.100
734.242	1.700
734.498	0.800
734.754	0.600
735.010	0.200
735.266	0.000
735.522	0.100
735.778	0.700
736.035	1.400
736.291	0.300
736.547	0.500
736.803	-0.200
737.059	0.300
737.315	-0.100
737.571	0.300
737.827	-1.700
738.083	-4.600
738.339	60.000
738.595	163.000
738.851	190.700
739.107	104.700
739.363	25.800
739.619	-4.200
739.875	-0.400
740.131	-0.600
740.387	-1.000
740.643	0.200
740.899	-0.500
741.155	0.200
741.411	-0.300
741.666	-0.400
741.922	0.900
742.178	-0.700
742.434	-0.200
742.690	-0.600
742.946	0.100
743.202	0.300
743.458	-0.600
743.714	0.800
743.969	1.200
744.225	-0.100
744.481	1.200
744.737	-0.200
744.993	0.200
745.249	0.400
745.504	-0.200
745.760	1.400
746.016	0.800
746.272	-0.200
746.527	0.600
746.783	0.900
747.039	0.800
747.295	1.300
747.550	0.800
747.806	1.200
748.062	0.400
748.318	-0.400
748.573	1.100
748.829	0.800
749.085	0.600
749.340	1.100
749.596	-0.800
749.852	-3.200
750.108	10.100
750.363	96.300
750.619	229.300
750.874	290.200
751.130	233.700
751.386	184.100
751.641	228.100
751.897	253.400
752.153	163.100
752.408	60.300
752.664	5.200
752.919	-3.200
753.175	-1.800
753.430	0.000
753.686	0.300
753.942	-0.300
754.197	-0.300
754.453	-0.400
754.708	0.900
754.964	0.400
755.219	-0.500
755.475	-0.500
755.730	0.800
755.986	0.300
756.241	-0.300
756.497	0.200
756.752	0.100
757.008	1.900
757.263	0.600
757.519	1.200
757.774	0.800
758.029	-0.400
758.285	1.200
758.540	-0.100
758.796	1.100
759.051	-0.700
759.307	0.200
759.562	0.800
759.817	0.000
760.073	0.500
760.328	-0.600
760.583	0.000
760.839	-0.700
761.094	1.000
761.349	-0.100
761.605	0.000
761.860	0.400
762.115	0.500
762.371	-0.100
762.626	0.800
762.881	-14.000
763.137	146.300
763.392	299.700
763.647	597.700
763.902	855.800
764.158	731.100
764.413	425.500
764.668	192.000
764.923	62.100
765.179	6.900
765.434	-3.300
765.689	-1.100
765.944	-0.100
766.199	-0.300
766.455	0.300
766.710	0.400
766.965	0.200
767.220	0.100
767.475	0.400
767.730	1.500
767.985	0.800
768.241	0.100
768.496	0.000
768.751	0.000
769.006	0.600
769.261	0.200
769.516	1.800
769.771	0.700
770.026	-0.500
770.281	-0.700
770.536	0.100
770.791	1.400
771.047	-0.200
771.302	1.100
771.557	0.600
771.812	0.300
772.067	-11.300
772.322	65.900
772.577	188.000
772.832	295.400
773.087	248.000
773.342	125.300
773.597	35.700
773.852	-2.200
774.107	0.000
774.361	-0.100
774.616	0.700
774.871	1.000
775.126	0.300
775.381	1.100
775.636	-1.000
775.891	0.700
776.146	0.900
776.401	0.200
776.656	0.500
776.911	0.800
777.165	0.400
777.420	0.100
777.675	-0.300
777.930	1.100
778.185	0.900
778.440	1.400
778.694	-0.800
778.949	0.300
779.204	0.900
779.459	0.200
779.714	1.000
779.968	1.100
780.223	0.900
780.478	0.300
780.733	0.400
780.988	0.100
781.242	1.000
781.497	-0.100
781.752	0.000
782.006	0.200
782.261	-0.400
782.516	0.900
782.771	1.200
783.025	1.100
783.280	0.100
783.535	0.900
783.789	1.400
784.044	-0.500
784.299	0.600
784.553	0.600
784.808	0.800
785.063	0.300
785.317	2.200
785.572	1.000
785.826	1.200
786.081	0.700
786.336	0.300
786.590	0.700
786.845	0.500
787.099	-0.300
787.354	-0.500
787.609	1.400
787.863	1.800
788.118	0.400
788.372	0.300
788.627	-0.500
788.881	0.500
789.136	1.300
789.390	0.300
789.645	-0.100
789.899	0.300
790.154	0.700
790.408	0.400
790.663	0.200
790.917	0.900
791.172	-0.400
791.426	0.800
791.680	0.600
791.935	0.700
792.189	1.500
792.444	0.500
792.698	0.400
792.953	-0.400
793.207	1.000
793.461	-0.400
793.716	0.600
793.970	1.400
794.224	0.000
794.479	0.200
794.733	-3.000
794.987	73.900
795.242	173.200
795.496	179.700
795.750	100.100
796.005	29.800
796.259	-3.200
796.513	-1.000
796.768	0.200
797.022	1.200
797.276	-1.100
797.530	1.500
797.785	1.200
798.039	1.500
798.293	0.900
798.547	0.700
798.802	0.800
799.056	0.500
799.310	-0.100
799.564	0.700
799.819	1.800
800.073	0.100
800.327	0.600
800.581	-6.900
800.835	48.900
801.089	153.700
801.344	203.100
801.598	205.800
801.852	273.700
802.106	292.100
802.360	192.400
802.614	82.700
802.868	18.800
803.122	-5.300
803.377	-0.900
803.631	1.100
803.885	1.300
804.139	0.000
804.393	1.000
804.647	0.600
804.901	0.300
805.155	0.300
805.409	1.000
805.663	-0.600
805.917	0.400
806.171	2.300
806.425	0.200
806.679	1.100
806.933	1.200
807.187	1.400
807.441	0.500
807.695	0.400
807.949	1.800
808.203	2.200
808.457	-0.400
808.711	0.600
808.965	0.200
809.219	0.900
809.473	0.300
809.726	1.700
809.980	1.300
810.234	-12.200
810.488	66.100
810.742	181.300
810.996	286.100
811.250	324.800
811.504	354.500
811.757	478.500
812.011	721.900
812.265	744.800
812.519	497.800
812.773	263.900
813.027	110.100
813.280	30.300
813.534	-0.600
813.788	-1.500
814.042	2.200
814.295	1.900
814.549	2.100
814.803	1.100
815.057	1.400
815.310	0.500
815.564	1.500
815.818	0.900
816.072	1.500
816.325	1.400
816.579	1.400
816.833	1.600
817.086	0.300
817.340	0.500
817.594	0.100
817.848	0.100
818.101	1.400
818.355	-0.600
818.608	1.700
818.862	0.900
819.116	2.100
819.369	0.300
819.623	0.200
819.877	0.200
820.130	0.200
820.384	0.400
820.637	1.600
820.891	0.900
821.144	0.700
821.398	0.900
821.652	0.500
821.905	0.000
822.159	0.800
822.412	2.100
822.666	-0.300
822.919	0.400
823.173	0.400
823.426	-0.600
823.680	0.400
823.933	1.000
824.187	0.400
824.440	0.100
824.694	0.700
824.947	0.700
825.201	0.300
825.454	-0.700
825.707	1.000
825.961	-0.200
826.214	0.800
826.468	-2.100
826.721	-4.400
826.975	79.000
827.228	103.800
827.481	55.200
827.735	11.000
827.988	-3.700
828.241	-0.300
828.495	0.400
828.748	0.300
829.001	0.200
829.255	0.600
829.508	0.900
829.761	0.900
830.015	0.000
830.268	1.400
830.521	1.000
830.775	1.300
831.028	1.400
831.281	1.400
831.534	0.700
831.788	0.900
832.041	-0.600
832.294	1.600
832.547	1.200
832.801	0.700
833.054	2.400
833.307	0.100
833.560	1.100
833.813	0.700
834.067	-0.200
834.320	-0.300
834.573	0.500
834.826	-0.600
835.079	-0.400
835.332	0.300
835.586	2.900
835.839	0.700
836.092	1.800
836.345	0.300
836.598	1.600
836.851	0.000
837.104	1.300
837.357	1.700
837.611	0.800
837.864	-0.100
838.117	1.500
838.370	1.200
838.623	-0.500
838.876	0.800
839.129	0.500
839.382	0.400
839.635	0.500
839.888	-0.800
840.141	0.700
840.394	1.000
840.647	0.000
840.900	-9.100
841.153	54.900
841.406	155.600
841.659	189.900
841.912	119.400
842.165	67.600
842.418	65.800
842.671	99.100
842.924	194.700
843.176	304.900
843.429	257.200
843.682	135.300
843.935	46.400
844.188	3.700
844.441	-3.000
844.694	0.500
844.947	0.500
845.200	0.500
845.452	-0.400
845.705	1.100
845.958	1.200
846.211	0.000
846.464	1.200
846.717	0.100
846.969	0.800
847.222	1.700
847.475	-1.200
847.728	0.300
847.981	0.600
848.233	-0.300
848.486	1.500
848.739	-0.200
848.992	0.500
849.244	1.100
849.497	-0.200
849.750	0.200
850.003	0.700
850.255	0.400
850.508	1.200
850.761	1.200
851.013	1.400
851.266	-0.100
851.519	-0.400
851.771	0.200
852.024	0.700
852.277	0.400
852.529	-9.100
852.782	33.900
853.035	61.200
853.287	29.600
853.540	-2.600
853.792	-2.900
854.045	-0.400
854.298	0.600
854.550	1.100
854.803	0.700
855.055	0.500
855.308	0.100
855.560	0.800
855.813	0.400
856.066	0.200
856.318	0.200
856.571	0.100
856.823	-0.300
857.076	0.400
857.328	-0.300
857.581	0.200
857.833	0.000
858.086	0.300
858.338	-0.600
858.591	0.300
858.843	0.000
859.095	0.900
859.348	0.000
859.600	0.300
859.853	0.300
860.105	-0.400
860.358	0.500
860.610	0.900
860.862	0.600
861.115	1.100
861.367	-0.200
861.620	0.700
861.872	0.300
862.124	0.700
862.377	-0.200
862.629	0.400
862.881	-1.600
863.134	0.300
863.386	0.200
863.638	-0.600
863.891	0.000
864.143	-0.200
864.395	0.000
864.648	1.600
864.900	0.100
865.152	1.500
865.404	0.200
865.657	0.900
865.909	-0.100
866.161	1.100
866.413	-0.100
866.666	-0.500
866.918	1.000
867.170	0.500
867.422	0.000
867.674	-1.500
867.927	-0.800
868.179	1.000
868.431	-0.200
868.683	-0.500
868.935	0.200
869.187	0.200
869.440	0.200
869.692	0.500
869.944	0.200
870.196	-0.100
870.448	0.200
870.700	0.700
870.952	0.700
871.204	1.400
871.457	-0.600
871.709	0.900
871.961	0.900
872.213	0.300
872.465	-0.200
872.717	-0.200
872.969	-0.400
873.221	0.800
873.473	-0.900
873.725	-0.100
873.977	0.300
874.229	0.000
874.481	0.800
874.733	0.100
874.985	2.000
875.237	0.500
875.489	0.300
875.741	0.300
875.993	-0.500
876.245	0.600
876.497	-0.400
876.749	-0.300
877.001	1.000
877.253	0.400
877.504	-0.900
877.756	0.500
878.008	-0.100
878.260	0.800
878.512	-1.300
878.764	0.500
879.016	1.100
879.268	0.200
879.519	0.900
879.771	0.500
880.023	-0.700
880.275	0.800
880.527	1.700
880.779	0.100
881.030	-0.700
881.282	0.200
881.534	-0.100
881.786	-0.300
882.038	0.800
882.289	-0.200
882.541	1.300
882.793	0.900
883.045	-0.300
883.296	-1.000
883.548	0.400
883.800	-1.800
884.052	-0.900
884.303	-0.400
884.555	0.400
884.807	0.800
885.058	0.300
885.310	-1.500
885.562	-0.400
885.813	0.600
886.065	1.100
886.317	-0.400
886.568	0.400
886.820	0.400
887.072	-0.100
887.323	-0.900
887.575	-0.400
887.826	1.400
888.078	-0.200
888.330	0.100
888.581	0.600
888.833	-1.000
889.084	-0.600
889.336	0.000
889.587	-0.300
889.839	1.100
890.091	0.100
890.342	1.000
890.594	0.100
890.845	-1.200
891.097	0.500
891.348	-0.200
891.600	-1.300
891.851	0.700
892.103	0.000
892.354	0.100
892.606	0.400
892.857	-0.200
893.108	0.900
893.360	0.500
893.611	0.200
893.863	-0.400
894.114	-1.200
894.366	0.100
894.617	0.500
894.868	0.000
895.120	0.800
895.371	0.400
895.623	-0.500
895.874	0.200
896.125	1.000
896.377	0.000
896.628	-0.300
896.879	-0.100
897.131	-0.400
897.382	0.000
897.633	-0.800
897.885	0.100
898.136	-0.800
898.387	-0.400
898.639	-0.600
898.890	0.900
899.141	-1.100
899.392	0.300
899.644	0.100
899.895	0.300
900.146	1.400
900.397	0.400
900.649	1.000
900.900	1.000
901.151	-0.400
901.402	-0.900
901.653	1.300
901.905	0.700
902.156	-0.800
902.407	-0.200
902.658	-0.200
902.909	-0.300
903.160	-0.900
903.412	0.200
903.663	0.100
903.914	0.000
904.165	1.200
904.416	-0.800
904.667	-0.300
904.918	1.500
905.169	0.900
905.421	0.500
905.672	-0.400
905.923	-0.900
906.174	0.300
906.425	1.500
906.676	0.600
906.927	0.600
907.178	1.600
907.429	0.300
907.680	1.000
907.931	-0.200
908.182	0.400
908.433	-0.100
908.684	0.000
908.935	0.900
909.186	0.700
909.437	1.900
909.688	0.000
909.939	0.300
910.190	0.400
910.441	-0.300
910.692	0.500
910.943	0.000
911.194	0.500
911.445	1.300
911.695	-0.100
911.946	-0.100
912.197	0.100
912.448	1.500
912.699	-1.000
912.950	1.700
913.201	105.800
913.452	185.500
913.702	151.500
913.953	61.100
914.204	9.600
914.455	-5.300
914.706	-0.600
914.957	0.600
915.207	0.500
915.458	0.500
915.709	0.700
915.960	-1.000
916.210	-0.100
916.461	1.100
916.712	0.400
916.963	0.800
917.213	0.300
917.464	0.200
917.715	0.400
917.966	1.000
918.216	-0.400
918.467	0.500
918.718	0.600
918.969	0.000
919.219	0.500
919.470	0.600
919.721	1.200
919.971	0.600
920.222	0.800
920.473	1.300
920.723	0.000
920.974	0.300
921.224	0.500
921.475	-0.300
921.726	0.700
921.976	-1.500
922.227	0.000
922.477	-0.700
922.728	1.300
922.979	0.500
923.229	1.200
923.480	-1.500
923.730	-5.200
923.981	-3.200
924.231	-2.200
924.482	-1.100
924.732	1.100
924.983	0.400
925.233	0.400
925.484	0.900
925.734	-1.500
925.985	1.300
926.235	0.700
926.486	1.000
926.736	-0.500
926.987	0.300
927.237	1.000
927.488	0.900
927.738	0.900
927.989	0.200
928.239	0.600
928.489	1.000
928.740	-0.300
928.990	-0.400
929.241	2.100
929.491	0.700
929.741	0.200
929.992	-0.100
930.242	0.700
930.492	0.100
930.743	1.400
930.993	0.500
931.243	0.700
931.494	-0.100
931.744	0.200
931.994	-0.600
932.245	0.700
932.495	1.900
932.745	-1.000
932.996	0.600
933.246	1.400
933.496	1.200
933.746	1.200
933.997	-0.500
934.247	1.000
934.497	0.000
934.747	2.700
934.998	0.800
935.248	0.700
935.498	0.300
935.748	-0.500
935.998	0.200
936.249	0.600
936.499	0.400
936.749	1.300
936.999	-0.100
937.249	-0.500
937.499	-0.500
937.750	0.800
938.000	1.200
938.250	0.300
938.500	0.200
938.750	1.200
939.000	0.100
939.250	-0.800
939.500	1.500
939.750	0.700
940.000	0.400
940.251	1.100
940.501	1.100
940.751	1.500
941.001	0.100
941.251	1.600
941.501	0.700
941.751	2.100
942.001	0.800
942.251	1.300
942.501	-0.100
942.751	0.500
943.001	2.000
943.251	0.500
943.501	-0.500
943.751	0.600
944.001	0.700
944.251	0.300
944.501	0.300
944.751	0.900
945.000	0.500
945.250	0.900
945.500	0.600
945.750	2.900
946.000	0.100
946.250	-0.100
946.500	0.300
946.750	0.800
947.000	0.100
947.249	1.000
947.499	0.900
947.749	0.800
947.999	1.300
948.249	1.900
948.499	0.400
948.749	1.100
948.998	1.200
949.248	0.400
949.498	1.500
949.748	0.100
949.997	1.100
950.247	1.000
950.497	0.500
950.747	2.000
950.997	-0.100
951.246	1.100
951.496	0.300
951.746	0.900
951.995	1.200
952.245	1.200
952.495	0.300
952.745	1.100
952.994	1.900
953.244	-0.400
953.494	0.700
953.743	1.400
953.993	0.400
954.243	1.100
954.492	0.200
954.742	0.000
954.992	-0.300
955.241	1.200
955.491	0.800
955.740	0.500
955.990	-0.500
956.240	0.900
956.489	0.600
956.739	1.900
956.988	0.100
957.238	0.600
957.488	1.100
957.737	-0.100
957.987	0.100
958.236	0.700
958.486	1.700
958.735	0.000
958.985	1.800
959.234	0.400
959.484	0.400
959.733	1.900
959.983	0.100
960.232	1.400
960.482	0.600
960.731	1.200
960.981	1.100
961.230	2.200
961.480	1.800
961.729	0.200
961.978	1.500
962.228	0.900
962.477	0.600
962.727	-0.300
962.976	-0.100
963.226	1.900
963.475	0.000
963.724	2.300
963.974	2.100
964.223	1.400
964.472	0.300
964.722	0.800
964.971	0.000
965.220	0.600
965.470	3.600
965.719	-0.100
965.968	2.300
966.218	0.300
966.467	1.700
966.716	1.400
966.966	0.700
967.215	1.100
967.464	-0.200
967.713	1.100
967.963	1.000
968.212	0.600
968.461	0.200
968.710	0.500
968.960	-0.400
969.209	2.100
969.458	0.900
969.707	1.500
969.956	1.800
970.206	-0.200
970.455	1.000
970.704	-0.700
970.953	1.700
971.202	0.500
971.451	1.600
971.701	1.700
971.950	0.800
972.199	1.100
972.448	2.000
972.697	1.700
972.946	1.200
973.195	1.100
973.444	0.200
973.694	1.300
973.943	0.700
974.192	-0.100
974.441	0.300
974.690	1.500
974.939	1.900
975.188	1.500
975.437	1.300
975.686	1.700
975.935	1.200
976.184	0.400
976.433	1.300
976.682	0.600
976.931	1.400
977.180	0.900
977.429	0.600
977.678	0.000
977.927	0.900
978.176	0.800
978.425	0.700
978.674	0.900
978.923	1.500
979.172	2.100
979.421	0.900
979.670	0.100
979.918	1.100
980.167	0.500
980.416	-0.200
980.665	0.100
980.914	1.100
981.163	0.200
981.412	0.800
981.661	1.800
981.909	-0.200
982.158	0.700
982.407	0.400
982.656	0.900
982.905	1.600
983.154	0.500
983.402	1.800
983.651	-0.500
983.900	0.000
984.149	0.600
984.398	0.000
984.646	1.700
984.895	1.000
985.144	-0.300
985.393	1.600
985.641	0.400
985.890	0.300
986.139	0.200
986.387	-0.200
986.636	1.200
986.885	-0.200
987.134	1.500
987.382	1.400
987.631	1.300
987.880	0.000
988.128	2.400
988.377	0.400
988.626	2.400
988.874	0.300
989.123	0.400
989.372	1.000
989.620	0.800
989.869	0.100
990.117	1.500
990.366	1.400
990.615	2.400
990.863	1.500
991.112	1.100
991.360	1.300
991.609	0.900
991.857	0.600
992.106	0.500
992.355	0.000
992.603	0.800
992.852	1.300
993.100	0.300
993.349	1.700
993.597	1.100
993.846	1.400
994.094	1.300
994.343	0.800
994.591	1.000
994.840	0.100
995.088	0.900
995.336	0.000
995.585	0.500
995.833	0.800
996.082	0.300
996.330	1.200
996.579	0.600
996.827	0.300
997.075	1.000
997.324	-0.400
997.572	2.400
997.821	0.800
998.069	1.300
998.317	0.700
998.566	0.800
998.814	0.600
999.062	0.000
999.311	2.100
999.559	0.500
999.807	1.100
1000.056	0.100
1000.304	-0.200
1000.552	0.700
1000.801	-0.100
1001.049	0.600
1001.297	0.500
1001.546	0.600
1001.794	0.800
1002.042	0.800
1002.290	1.700
1002.539	-0.100
1002.787	0.200
1003.035	1.200
1003.283	0.400
1003.531	1.500
1003.780	0.600
1004.028	1.700
1004.276	0.400
1004.524	0.800
1004.772	0.800
1005.021	0.700
1005.269	1.300
1005.517	1.600
1005.765	2.400
1006.013	1.300
1006.261	0.300
1006.509	1.300
1006.758	-0.500
1007.006	0.500
1007.254	0.700
1007.502	1.200
1007.750	0.900
1007.998	0.000
1008.246	0.800
1008.494	0.900
1008.742	1.800
1008.990	-0.800
1009.238	1.100
1009.486	0.500
1009.735	0.700
1009.983	-0.500
1010.231	0.100
1010.479	0.300
1010.727	0.600
1010.975	0.200
1011.223	1.900
1011.471	1.500
1011.719	-0.100
1011.967	0.600
1012.214	1.400
1012.462	1.700
1012.710	1.300
1012.958	1.100
1013.206	0.000
1013.454	1.300
1013.702	0.700
1013.950	1.200
1014.198	0.100
1014.446	1.700
1014.694	0.900
1014.942	0.500
1015.189	-0.100
1015.437	1.100
1015.685	1.600
1015.933	0.700
1016.181	2.300
1016.429	0.500
1016.677	0.800
1016.924	1.400
1017.172	0.900
1017.420	-0.600
1017.668	-0.400
1017.916	0.000
1018.163	1.100
1018.411	0.000
1018.659	0.300
1018.907	-1.300
1019.155	0.400
1019.402	1.300
1019.650	0.000
1019.898	0.500
1020.145	1.100
1020.393	0.000
1020.641	0.100
1020.889	-0.100
1021.136	1.600
1021.384	0.600
1021.632	-1.000
1021.879	-0.200
1022.127	0.700
1022.375	0.000
1022.622	-0.200
1022.870	0.600
1023.118	1.100
1023.365	-0.900
1023.613	1.300
1023.861	-0.600
1024.108	0.500
1024.356	0.800
1024.603	0.800
1024.851	1.300
1025.099	-1.100
1025.346	1.600
1025.594	-0.900
1025.841	2.200
1026.089	-0.500
1026.336	-0.300
1026.584	0.200
1026.832	1.000
1027.079	0.100
1027.327	0.300
1027.574	0.000
1027.822	0.800
1028.069	0.100
1028.317	0.200
1028.564	-0.200
1028.812	0.700
1029.059	1.600
1029.306	0.000
1029.554	0.700
1029.801	1.800
1030.049	-0.300
1030.296	-0.400
1030.544	0.200
1030.791	-0.200
1031.039	-0.600
1031.286	-0.600
1031.533	2.100
1031.781	0.200
1032.028	1.400
1032.276	0.900
1032.523	0.600
1032.770	1.100
1033.018	-0.800
1033.265	-0.100
1033.512	-1.300
1033.760	-1.700
1034.007	1.300
1034.254	-0.100
1034.502	0.100
1034.749	0.900
1034.996	1.000
1035.243	0.400
1035.491	0.600
1035.738	0.700
1035.985	2.100
1036.233	0.200
1036.480	0.000
1036.727	1.500
1036.974	0.600
1037.222	-0.400
1037.469	-0.400
1037.716	0.600
1037.963	-0.200
1038.210	0.700
1038.458	0.600
1038.705	-0.400
1038.952	0.400
1039.199	-0.300
1039.446	0.300
1039.693	0.200
1039.941	0.400
1040.188	1.000
1040.435	0.900
1040.682	-1.200
1040.929	0.600
1041.176	0.500
1041.423	-0.800
1041.671	0.900
1041.918	0.300
1042.165	-0.300
1042.412	1.100
1042.659	-0.300
1042.906	0.400
1043.153	0.500
1043.400	0.600
1043.647	-0.200
1043.894	1.100
1044.141	-0.400
1044.388	1.200
1044.635	-0.300
1044.882	-0.700
1045.129	0.300
1045.376	0.000
1045.623	0.000
1045.870	1.200
1046.117	0.400
1046.364	1.600
1046.611	-0.400
1046.858	0.100
1047.105	0.600
1047.352	-0.200
1047.599	0.100
1047.846	-0.200
1048.093	-0.100
1048.340	-0.700
1048.587	0.600
1048.833	1.400
1049.080	0.200
1049.327	0.200
1049.574	-0.400
1049.821	-0.700
1050.068	0.100
1050.315	-0.200
1050.561	0.300
1050.808	1.100
1051.055	-1.200
1051.302	0.400
1051.549	0.200
1051.796	0.800
1052.042	-0.400
1052.289	-0.400
1052.536	0.100
1052.783	0.100
1053.030	2.300
1053.276	0.300
1053.523	0.200
1053.770	0.900
1054.017	-0.900
1054.263	0.600
1054.510	0.000
1054.757	0.700
1055.003	0.400
1055.250	0.400
1055.497	0.900
1055.744	0.300
1055.990	0.700
1056.237	-0.400
1056.484	-0.100
1056.730	0.900
1056.977	-1.000
1057.224	0.800
1057.470	-0.400
1057.717	0.500
1057.963	0.300
1058.210	0.300
1058.457	-1.100
1058.703	0.100
1058.950	1.700
1059.197	-0.600
1059.443	1.600
1059.690	-0.700
1059.936	1.800
1060.183	2.000
1060.429	1.600
1060.676	0.700
1060.922	1.200
1061.169	0.400
1061.416	0.800
1061.662	-0.300
1061.909	-0.700
1062.155	-1.100
1062.402	0.900
1062.648	-0.400
1062.895	1.600
1063.141	1.500
1063.387	-1.600
1063.634	0.500
1063.880	-0.200
1064.127	1.800
1064.373	0.800
1064.620	0.100
1064.866	0.400
1065.113	-0.400
1065.359	0.700
1065.605	0.300
1065.852	0.600
1066.098	1.000
1066.345	-0.700
1066.591	2.400
1066.837	0.500
1067.084	1.500
1067.330	-0.400
1067.576	0.200
1067.823	-0.400
1068.069	-1.000
1068.315	0.100
1068.562	0.000
1068.808	0.700
1069.054	0.200
1069.301	1.000
1069.547	-0.500
1069.793	-0.400
1070.040	-0.400
1070.286	0.400
1070.532	0.600
1070.778	0.300
1071.025	0.900
1071.271	0.300
1071.517	-0.800
1071.763	0.800
1072.009	-0.200
1072.256	0.600
1072.502	0.300
1072.748	0.000
1072.994	0.200
1073.240	-0.100
1073.487	0.400
1073.733	-0.500
1073.979	1.300
1074.225	-0.800
1074.471	0.000
1074.717	0.900
1074.964	-0.100
1075.210	0.700
1075.456	1.400
1075.702	1.100
1075.948	-0.300
1076.194	0.700
1076.440	-0.200
1076.686	-0.300
1076.932	1.300
1077.178	0.300
1077.425	1.400
1077.671	0.600
1077.917	-0.100
1078.163	-0.300
1078.409	0.300
1078.655	0.900
1078.901	-0.100
1079.147	0.800
1079.393	-0.100
1079.639	-0.600
1079.885	0.300
1080.131	0.200
1080.377	0.200
1080.623	-1.400
1080.869	0.600
1081.115	0.300
1081.361	-1.000
1081.606	0.600
1081.852	1.200
1082.098	-0.800
1082.344	1.000
1082.590	0.000
1082.836	0.300
1083.082	-0.200
1083.328	-0.300
1083.574	0.300
1083.820	-0.100
1084.065	1.100
1084.311	-0.900
1084.557	2.400
1084.803	-0.100
1085.049	-0.500
1085.295	0.600
1085.541	2.400
1085.786	0.000
1086.032	0.700
1086.278	-0.200
1086.524	0.800
1086.770	1.700
1087.015	0.200
1087.261	-0.100
1087.507	-1.400
1087.753	0.200
1087.998	-0.100
1088.244	-0.600
1088.490	0.600
1088.736	0.200
1088.981	0.200
1089.227	-1.000
1089.473	-0.400
1089.719	0.400
1089.964	-0.600
1090.210	1.700
1090.456	0.900
1090.701	0.700
1090.947	1.400
1091.193	1.200
1091.438	1.200
1091.684	1.800
1091.930	-1.100
1092.175	1.000
1092.421	0.500
1092.666	0.800
1092.912	-0.300
1093.158	0.700
1093.403	0.500
1093.649	0.500
1093.894	1.100
1094.140	-0.400
1094.386	0.300
1094.631	0.100
1094.877	1.200
1095.122	1.200
1095.368	0.300
1095.613	-0.400
1095.859	0.700
1096.104	-0.100
1096.350	0.200
1096.595	1.200
1096.841	1.800
1097.086	-0.500
1097.332	0.700
1097.577	0.000
1097.823	0.300
1098.068	0.300
1098.314	0.700
1098.559	1.200
1098.805	0.700
1099.050	1.600
1099.295	1.600
1099.541	0.300
1099.786	1.400
+++++End Spectral Data+++++
