Created as New Dataset,Sample 005 By Administrator Date Thursday, October 16 2025
cm-1,%T
4000.00,98.44
3999.00,98.44
3998.00,98.44
3997.00,98.44
3996.00,98.45
3995.00,98.45
3994.00,98.46
3993.00,98.45
3992.00,98.45
3991.00,98.46
3990.00,98.47
3989.00,98.47
3988.00,98.47
3987.00,98.47
3986.00,98.47
3985.00,98.47
3984.00,98.46
3983.00,98.46
3982.00,98.46
3981.00,98.47
3980.00,98.48
3979.00,98.49
3978.00,98.49
3977.00,98.49
3976.00,98.49
3975.00,98.48
3974.00,98.47
3973.00,98.47
3972.00,98.47
3971.00,98.47
3970.00,98.47
3969.00,98.47
3968.00,98.46
3967.00,98.46
3966.00,98.46
3965.00,98.45
3964.00,98.46
3963.00,98.46
3962.00,98.47
3961.00,98.48
3960.00,98.47
3959.00,98.46
3958.00,98.45
3957.00,98.46
3956.00,98.46
3955.00,98.46
3954.00,98.45
3953.00,98.44
3952.00,98.44
3951.00,98.45
3950.00,98.47
3949.00,98.50
3948.00,98.53
3947.00,98.54
3946.00,98.52
3945.00,98.47
3944.00,98.43
3943.00,98.43
3942.00,98.46
3941.00,98.47
3940.00,98.47
3939.00,98.47
3938.00,98.49
3937.00,98.52
3936.00,98.54
3935.00,98.54
3934.00,98.53
3933.00,98.53
3932.00,98.51
3931.00,98.47
3930.00,98.46
3929.00,98.46
3928.00,98.47
3927.00,98.44
3926.00,98.42
3925.00,98.44
3924.00,98.48
3923.00,98.49
3922.00,98.48
3921.00,98.50
3920.00,98.54
3919.00,98.57
3918.00,98.55
3917.00,98.54
3916.00,98.54
3915.00,98.53
3914.00,98.50
3913.00,98.49
3912.00,98.50
3911.00,98.50
3910.00,98.49
3909.00,98.49
3908.00,98.48
3907.00,98.46
3906.00,98.46
3905.00,98.53
3904.00,98.67
3903.00,98.77
3902.00,98.75
3901.00,98.65
3900.00,98.58
3899.00,98.56
3898.00,98.56
3897.00,98.55
3896.00,98.55
3895.00,98.56
3894.00,98.55
3893.00,98.50
3892.00,98.47
3891.00,98.54
3890.00,98.65
3889.00,98.70
3888.00,98.67
3887.00,98.65
3886.00,98.68
3885.00,98.69
3884.00,98.62
3883.00,98.49
3882.00,98.41
3881.00,98.43
3880.00,98.53
3879.00,98.62
3878.00,98.62
3877.00,98.56
3876.00,98.49
3875.00,98.50
3874.00,98.58
3873.00,98.63
3872.00,98.60
3871.00,98.57
3870.00,98.65
3869.00,98.76
3868.00,98.72
3867.00,98.59
3866.00,98.55
3865.00,98.62
3864.00,98.64
3863.00,98.59
3862.00,98.58
3861.00,98.63
3860.00,98.65
3859.00,98.63
3858.00,98.60
3857.00,98.61
3856.00,98.65
3855.00,98.69
3854.00,98.72
3853.00,98.77
3852.00,98.78
3851.00,98.72
3850.00,98.69
3849.00,98.71
3848.00,98.72
3847.00,98.67
3846.00,98.61
3845.00,98.58
3844.00,98.57
3843.00,98.59
3842.00,98.61
3841.00,98.59
3840.00,98.54
3839.00,98.53
3838.00,98.55
3837.00,98.56
3836.00,98.58
3835.00,98.59
3834.00,98.60
3833.00,98.60
3832.00,98.61
3831.00,98.64
3830.00,98.65
3829.00,98.60
3828.00,98.54
3827.00,98.55
3826.00,98.64
3825.00,98.72
3824.00,98.70
3823.00,98.62
3822.00,98.60
3821.00,98.68
3820.00,98.76
3819.00,98.73
3818.00,98.64
3817.00,98.63
3816.00,98.71
3815.00,98.75
3814.00,98.68
3813.00,98.58
3812.00,98.58
3811.00,98.68
3810.00,98.74
3809.00,98.70
3808.00,98.67
3807.00,98.74
3806.00,98.84
3805.00,98.83
3804.00,98.72
3803.00,98.64
3802.00,98.67
3801.00,98.71
3800.00,98.69
3799.00,98.61
3798.00,98.56
3797.00,98.59
3796.00,98.64
3795.00,98.63
3794.00,98.57
3793.00,98.54
3792.00,98.55
3791.00,98.57
3790.00,98.56
3789.00,98.55
3788.00,98.55
3787.00,98.55
3786.00,98.54
3785.00,98.54
3784.00,98.57
3783.00,98.58
3782.00,98.56
3781.00,98.51
3780.00,98.52
3779.00,98.57
3778.00,98.60
3777.00,98.58
3776.00,98.55
3775.00,98.59
3774.00,98.65
3773.00,98.65
3772.00,98.60
3771.00,98.60
3770.00,98.65
3769.00,98.67
3768.00,98.63
3767.00,98.59
3766.00,98.60
3765.00,98.65
3764.00,98.68
3763.00,98.66
3762.00,98.63
3761.00,98.62
3760.00,98.64
3759.00,98.64
3758.00,98.66
3757.00,98.72
3756.00,98.77
3755.00,98.81
3754.00,98.90
3753.00,99.05
3752.00,99.19
3751.00,99.22
3750.00,99.22
3749.00,99.24
3748.00,99.19
3747.00,99.01
3746.00,98.84
3745.00,98.83
3744.00,98.91
3743.00,98.93
3742.00,98.89
3741.00,98.91
3740.00,99.04
3739.00,99.14
3738.00,99.10
3737.00,99.01
3736.00,98.96
3735.00,98.90
3734.00,98.83
3733.00,98.80
3732.00,98.83
3731.00,98.85
3730.00,98.82
3729.00,98.79
3728.00,98.77
3727.00,98.78
3726.00,98.76
3725.00,98.69
3724.00,98.63
3723.00,98.60
3722.00,98.62
3721.00,98.64
3720.00,98.63
3719.00,98.62
3718.00,98.64
3717.00,98.71
3716.00,98.77
3715.00,98.80
3714.00,98.85
3713.00,98.90
3712.00,98.87
3711.00,98.79
3710.00,98.73
3709.00,98.71
3708.00,98.69
3707.00,98.69
3706.00,98.68
3705.00,98.66
3704.00,98.61
3703.00,98.56
3702.00,98.55
3701.00,98.58
3700.00,98.60
3699.00,98.60
3698.00,98.60
3697.00,98.64
3696.00,98.67
3695.00,98.66
3694.00,98.64
3693.00,98.66
3692.00,98.68
3691.00,98.67
3690.00,98.68
3689.00,98.74
3688.00,98.79
3687.00,98.79
3686.00,98.74
3685.00,98.72
3684.00,98.73
3683.00,98.75
3682.00,98.71
3681.00,98.69
3680.00,98.74
3679.00,98.86
3678.00,98.93
3677.00,98.92
3676.00,98.91
3675.00,98.94
3674.00,98.94
3673.00,98.86
3672.00,98.82
3671.00,98.84
3670.00,98.85
3669.00,98.80
3668.00,98.75
3667.00,98.70
3666.00,98.69
3665.00,98.70
3664.00,98.69
3663.00,98.66
3662.00,98.63
3661.00,98.64
3660.00,98.70
3659.00,98.74
3658.00,98.74
3657.00,98.74
3656.00,98.79
3655.00,98.82
3654.00,98.80
3653.00,98.78
3652.00,98.85
3651.00,98.97
3650.00,98.99
3649.00,98.91
3648.00,98.85
3647.00,98.82
3646.00,98.79
3645.00,98.75
3644.00,98.72
3643.00,98.69
3642.00,98.67
3641.00,98.64
3640.00,98.62
3639.00,98.63
3638.00,98.65
3637.00,98.67
3636.00,98.68
3635.00,98.69
3634.00,98.75
3633.00,98.85
3632.00,98.93
3631.00,98.97
3630.00,99.00
3629.00,99.01
3628.00,98.98
3627.00,98.90
3626.00,98.82
3625.00,98.80
3624.00,98.82
3623.00,98.79
3622.00,98.71
3621.00,98.64
3620.00,98.61
3619.00,98.63
3618.00,98.68
3617.00,98.74
3616.00,98.76
3615.00,98.76
3614.00,98.80
3613.00,98.86
3612.00,98.92
3611.00,98.94
3610.00,98.94
3609.00,98.91
3608.00,98.86
3607.00,98.78
3606.00,98.72
3605.00,98.70
3604.00,98.69
3603.00,98.68
3602.00,98.67
3601.00,98.68
3600.00,98.69
3599.00,98.68
3598.00,98.67
3597.00,98.67
3596.00,98.67
3595.00,98.67
3594.00,98.69
3593.00,98.74
3592.00,98.80
3591.00,98.83
3590.00,98.84
3589.00,98.82
3588.00,98.79
3587.00,98.75
3586.00,98.73
3585.00,98.72
3584.00,98.71
3583.00,98.70
3582.00,98.68
3581.00,98.67
3580.00,98.65
3579.00,98.63
3578.00,98.63
3577.00,98.64
3576.00,98.65
3575.00,98.65
3574.00,98.66
3573.00,98.69
3572.00,98.72
3571.00,98.76
3570.00,98.79
3569.00,98.81
3568.00,98.81
3567.00,98.79
3566.00,98.75
3565.00,98.72
3564.00,98.70
3563.00,98.70
3562.00,98.70
3561.00,98.70
3560.00,98.69
3559.00,98.67
3558.00,98.66
3557.00,98.67
3556.00,98.68
3555.00,98.67
3554.00,98.67
3553.00,98.67
3552.00,98.69
3551.00,98.70
3550.00,98.71
3549.00,98.73
3548.00,98.75
3547.00,98.75
3546.00,98.74
3545.00,98.72
3544.00,98.71
3543.00,98.69
3542.00,98.68
3541.00,98.68
3540.00,98.68
3539.00,98.68
3538.00,98.67
3537.00,98.67
3536.00,98.68
3535.00,98.69
3534.00,98.69
3533.00,98.69
3532.00,98.70
3531.00,98.69
3530.00,98.68
3529.00,98.69
3528.00,98.71
3527.00,98.73
3526.00,98.74
3525.00,98.73
3524.00,98.72
3523.00,98.71
3522.00,98.70
3521.00,98.69
3520.00,98.69
3519.00,98.69
3518.00,98.69
3517.00,98.70
3516.00,98.70
3515.00,98.69
3514.00,98.68
3513.00,98.68
3512.00,98.68
3511.00,98.68
3510.00,98.69
3509.00,98.71
3508.00,98.72
3507.00,98.72
3506.00,98.71
3505.00,98.71
3504.00,98.71
3503.00,98.71
3502.00,98.71
3501.00,98.72
3500.00,98.73
3499.00,98.72
3498.00,98.72
3497.00,98.72
3496.00,98.71
3495.00,98.70
3494.00,98.70
3493.00,98.70
3492.00,98.70
3491.00,98.70
3490.00,98.70
3489.00,98.71
3488.00,98.72
3487.00,98.72
3486.00,98.71
3485.00,98.70
3484.00,98.70
3483.00,98.70
3482.00,98.70
3481.00,98.71
3480.00,98.72
3479.00,98.71
3478.00,98.71
3477.00,98.70
3476.00,98.70
3475.00,98.69
3474.00,98.68
3473.00,98.68
3472.00,98.69
3471.00,98.70
3470.00,98.71
3469.00,98.72
3468.00,98.73
3467.00,98.72
3466.00,98.72
3465.00,98.71
3464.00,98.70
3463.00,98.69
3462.00,98.69
3461.00,98.70
3460.00,98.70
3459.00,98.70
3458.00,98.70
3457.00,98.70
3456.00,98.70
3455.00,98.71
3454.00,98.71
3453.00,98.71
3452.00,98.71
3451.00,98.71
3450.00,98.70
3449.00,98.70
3448.00,98.70
3447.00,98.71
3446.00,98.72
3445.00,98.72
3444.00,98.72
3443.00,98.72
3442.00,98.72
3441.00,98.73
3440.00,98.73
3439.00,98.73
3438.00,98.73
3437.00,98.73
3436.00,98.73
3435.00,98.73
3434.00,98.73
3433.00,98.73
3432.00,98.74
3431.00,98.74
3430.00,98.74
3429.00,98.73
3428.00,98.73
3427.00,98.73
3426.00,98.73
3425.00,98.73
3424.00,98.73
3423.00,98.73
3422.00,98.73
3421.00,98.73
3420.00,98.73
3419.00,98.73
3418.00,98.73
3417.00,98.72
3416.00,98.72
3415.00,98.73
3414.00,98.73
3413.00,98.73
3412.00,98.73
3411.00,98.73
3410.00,98.72
3409.00,98.73
3408.00,98.74
3407.00,98.74
3406.00,98.75
3405.00,98.75
3404.00,98.76
3403.00,98.76
3402.00,98.76
3401.00,98.76
3400.00,98.75
3399.00,98.75
3398.00,98.74
3397.00,98.74
3396.00,98.74
3395.00,98.74
3394.00,98.74
3393.00,98.75
3392.00,98.75
3391.00,98.75
3390.00,98.75
3389.00,98.75
3388.00,98.75
3387.00,98.75
3386.00,98.75
3385.00,98.75
3384.00,98.75
3383.00,98.75
3382.00,98.75
3381.00,98.74
3380.00,98.74
3379.00,98.73
3378.00,98.73
3377.00,98.74
3376.00,98.74
3375.00,98.74
3374.00,98.73
3373.00,98.74
3372.00,98.74
3371.00,98.74
3370.00,98.74
3369.00,98.74
3368.00,98.73
3367.00,98.72
3366.00,98.71
3365.00,98.72
3364.00,98.73
3363.00,98.74
3362.00,98.75
3361.00,98.75
3360.00,98.75
3359.00,98.74
3358.00,98.73
3357.00,98.74
3356.00,98.74
3355.00,98.74
3354.00,98.74
3353.00,98.74
3352.00,98.75
3351.00,98.74
3350.00,98.74
3349.00,98.74
3348.00,98.73
3347.00,98.73
3346.00,98.74
3345.00,98.74
3344.00,98.75
3343.00,98.75
3342.00,98.75
3341.00,98.75
3340.00,98.75
3339.00,98.74
3338.00,98.74
3337.00,98.74
3336.00,98.75
3335.00,98.75
3334.00,98.75
3333.00,98.75
3332.00,98.74
3331.00,98.74
3330.00,98.74
3329.00,98.75
3328.00,98.75
3327.00,98.75
3326.00,98.75
3325.00,98.75
3324.00,98.75
3323.00,98.74
3322.00,98.74
3321.00,98.74
3320.00,98.74
3319.00,98.74
3318.00,98.74
3317.00,98.74
3316.00,98.74
3315.00,98.74
3314.00,98.74
3313.00,98.75
3312.00,98.76
3311.00,98.76
3310.00,98.77
3309.00,98.77
3308.00,98.77
3307.00,98.77
3306.00,98.76
3305.00,98.75
3304.00,98.75
3303.00,98.74
3302.00,98.74
3301.00,98.74
3300.00,98.74
3299.00,98.74
3298.00,98.75
3297.00,98.76
3296.00,98.77
3295.00,98.77
3294.00,98.77
3293.00,98.78
3292.00,98.78
3291.00,98.77
3290.00,98.76
3289.00,98.76
3288.00,98.75
3287.00,98.75
3286.00,98.74
3285.00,98.75
3284.00,98.75
3283.00,98.76
3282.00,98.76
3281.00,98.77
3280.00,98.77
3279.00,98.77
3278.00,98.76
3277.00,98.76
3276.00,98.76
3275.00,98.76
3274.00,98.77
3273.00,98.77
3272.00,98.77
3271.00,98.77
3270.00,98.77
3269.00,98.76
3268.00,98.76
3267.00,98.76
3266.00,98.76
3265.00,98.77
3264.00,98.77
3263.00,98.78
3262.00,98.78
3261.00,98.78
3260.00,98.78
3259.00,98.77
3258.00,98.76
3257.00,98.76
3256.00,98.76
3255.00,98.76
3254.00,98.75
3253.00,98.75
3252.00,98.75
3251.00,98.75
3250.00,98.75
3249.00,98.75
3248.00,98.76
3247.00,98.76
3246.00,98.76
3245.00,98.77
3244.00,98.77
3243.00,98.77
3242.00,98.76
3241.00,98.76
3240.00,98.76
3239.00,98.75
3238.00,98.75
3237.00,98.75
3236.00,98.76
3235.00,98.76
3234.00,98.76
3233.00,98.77
3232.00,98.76
3231.00,98.76
3230.00,98.76
3229.00,98.76
3228.00,98.76
3227.00,98.76
3226.00,98.76
3225.00,98.76
3224.00,98.76
3223.00,98.76
3222.00,98.77
3221.00,98.77
3220.00,98.77
3219.00,98.77
3218.00,98.77
3217.00,98.77
3216.00,98.77
3215.00,98.77
3214.00,98.77
3213.00,98.77
3212.00,98.77
3211.00,98.76
3210.00,98.77
3209.00,98.77
3208.00,98.77
3207.00,98.76
3206.00,98.76
3205.00,98.77
3204.00,98.77
3203.00,98.77
3202.00,98.76
3201.00,98.76
3200.00,98.76
3199.00,98.76
3198.00,98.76
3197.00,98.76
3196.00,98.76
3195.00,98.76
3194.00,98.76
3193.00,98.77
3192.00,98.77
3191.00,98.77
3190.00,98.77
3189.00,98.77
3188.00,98.77
3187.00,98.77
3186.00,98.77
3185.00,98.77
3184.00,98.77
3183.00,98.77
3182.00,98.77
3181.00,98.77
3180.00,98.76
3179.00,98.76
3178.00,98.76
3177.00,98.76
3176.00,98.76
3175.00,98.76
3174.00,98.76
3173.00,98.76
3172.00,98.76
3171.00,98.76
3170.00,98.76
3169.00,98.76
3168.00,98.76
3167.00,98.76
3166.00,98.76
3165.00,98.76
3164.00,98.77
3163.00,98.77
3162.00,98.77
3161.00,98.77
3160.00,98.77
3159.00,98.76
3158.00,98.76
3157.00,98.76
3156.00,98.76
3155.00,98.76
3154.00,98.76
3153.00,98.77
3152.00,98.77
3151.00,98.77
3150.00,98.77
3149.00,98.76
3148.00,98.76
3147.00,98.75
3146.00,98.75
3145.00,98.76
3144.00,98.76
3143.00,98.77
3142.00,98.77
3141.00,98.77
3140.00,98.77
3139.00,98.77
3138.00,98.77
3137.00,98.78
3136.00,98.78
3135.00,98.78
3134.00,98.78
3133.00,98.78
3132.00,98.78
3131.00,98.78
3130.00,98.78
3129.00,98.78
3128.00,98.78
3127.00,98.78
3126.00,98.77
3125.00,98.77
3124.00,98.77
3123.00,98.77
3122.00,98.77
3121.00,98.78
3120.00,98.77
3119.00,98.77
3118.00,98.77
3117.00,98.78
3116.00,98.78
3115.00,98.78
3114.00,98.78
3113.00,98.78
3112.00,98.77
3111.00,98.77
3110.00,98.77
3109.00,98.77
3108.00,98.77
3107.00,98.77
3106.00,98.77
3105.00,98.77
3104.00,98.77
3103.00,98.77
3102.00,98.78
3101.00,98.79
3100.00,98.79
3099.00,98.79
3098.00,98.79
3097.00,98.79
3096.00,98.79
3095.00,98.79
3094.00,98.79
3093.00,98.79
3092.00,98.78
3091.00,98.78
3090.00,98.79
3089.00,98.79
3088.00,98.78
3087.00,98.78
3086.00,98.78
3085.00,98.78
3084.00,98.78
3083.00,98.77
3082.00,98.77
3081.00,98.78
3080.00,98.78
3079.00,98.79
3078.00,98.79
3077.00,98.79
3076.00,98.79
3075.00,98.78
3074.00,98.78
3073.00,98.78
3072.00,98.78
3071.00,98.78
3070.00,98.78
3069.00,98.79
3068.00,98.79
3067.00,98.79
3066.00,98.79
3065.00,98.79
3064.00,98.79
3063.00,98.78
3062.00,98.78
3061.00,98.78
3060.00,98.78
3059.00,98.78
3058.00,98.79
3057.00,98.79
3056.00,98.79
3055.00,98.78
3054.00,98.78
3053.00,98.78
3052.00,98.78
3051.00,98.78
3050.00,98.78
3049.00,98.78
3048.00,98.78
3047.00,98.77
3046.00,98.77
3045.00,98.77
3044.00,98.77
3043.00,98.77
3042.00,98.77
3041.00,98.77
3040.00,98.78
3039.00,98.77
3038.00,98.78
3037.00,98.78
3036.00,98.79
3035.00,98.79
3034.00,98.79
3033.00,98.79
3032.00,98.79
3031.00,98.79
3030.00,98.79
3029.00,98.79
3028.00,98.78
3027.00,98.78
3026.00,98.78
3025.00,98.78
3024.00,98.78
3023.00,98.78
3022.00,98.78
3021.00,98.79
3020.00,98.80
3019.00,98.81
3018.00,98.82
3017.00,98.82
3016.00,98.82
3015.00,98.81
3014.00,98.80
3013.00,98.80
3012.00,98.79
3011.00,98.79
3010.00,98.79
3009.00,98.79
3008.00,98.79
3007.00,98.78
3006.00,98.78
3005.00,98.78
3004.00,98.78
3003.00,98.78
3002.00,98.79
3001.00,98.79
3000.00,98.80
2999.00,98.80
2998.00,98.80
2997.00,98.80
2996.00,98.79
2995.00,98.79
2994.00,98.79
2993.00,98.79
2992.00,98.79
2991.00,98.79
2990.00,98.80
2989.00,98.80
2988.00,98.80
2987.00,98.80
2986.00,98.79
2985.00,98.80
2984.00,98.80
2983.00,98.81
2982.00,98.81
2981.00,98.81
2980.00,98.80
2979.00,98.80
2978.00,98.79
2977.00,98.79
2976.00,98.79
2975.00,98.79
2974.00,98.79
2973.00,98.80
2972.00,98.80
2971.00,98.80
2970.00,98.80
2969.00,98.79
2968.00,98.79
2967.00,98.79
2966.00,98.79
2965.00,98.79
2964.00,98.78
2963.00,98.78
2962.00,98.79
2961.00,98.79
2960.00,98.79
2959.00,98.79
2958.00,98.79
2957.00,98.79
2956.00,98.78
2955.00,98.78
2954.00,98.78
2953.00,98.78
2952.00,98.78
2951.00,98.79
2950.00,98.80
2949.00,98.81
2948.00,98.80
2947.00,98.80
2946.00,98.79
2945.00,98.79
2944.00,98.79
2943.00,98.79
2942.00,98.79
2941.00,98.80
2940.00,98.81
2939.00,98.81
2938.00,98.82
2937.00,98.82
2936.00,98.82
2935.00,98.81
2934.00,98.80
2933.00,98.80
2932.00,98.81
2931.00,98.81
2930.00,98.81
2929.00,98.81
2928.00,98.81
2927.00,98.80
2926.00,98.80
2925.00,98.79
2924.00,98.79
2923.00,98.79
2922.00,98.78
2921.00,98.78
2920.00,98.76
2919.00,98.75
2918.00,98.74
2917.00,98.74
2916.00,98.74
2915.00,98.74
2914.00,98.75
2913.00,98.76
2912.00,98.76
2911.00,98.76
2910.00,98.77
2909.00,98.78
2908.00,98.78
2907.00,98.79
2906.00,98.79
2905.00,98.78
2904.00,98.77
2903.00,98.77
2902.00,98.77
2901.00,98.78
2900.00,98.78
2899.00,98.78
2898.00,98.78
2897.00,98.78
2896.00,98.79
2895.00,98.79
2894.00,98.79
2893.00,98.80
2892.00,98.80
2891.00,98.79
2890.00,98.79
2889.00,98.79
2888.00,98.79
2887.00,98.80
2886.00,98.80
2885.00,98.80
2884.00,98.80
2883.00,98.80
2882.00,98.80
2881.00,98.81
2880.00,98.81
2879.00,98.81
2878.00,98.81
2877.00,98.81
2876.00,98.81
2875.00,98.81
2874.00,98.81
2873.00,98.81
2872.00,98.81
2871.00,98.81
2870.00,98.81
2869.00,98.80
2868.00,98.80
2867.00,98.80
2866.00,98.79
2865.00,98.79
2864.00,98.79
2863.00,98.79
2862.00,98.80
2861.00,98.81
2860.00,98.81
2859.00,98.81
2858.00,98.81
2857.00,98.80
2856.00,98.80
2855.00,98.80
2854.00,98.80
2853.00,98.80
2852.00,98.80
2851.00,98.79
2850.00,98.78
2849.00,98.77
2848.00,98.77
2847.00,98.77
2846.00,98.78
2845.00,98.79
2844.00,98.79
2843.00,98.80
2842.00,98.80
2841.00,98.81
2840.00,98.81
2839.00,98.81
2838.00,98.81
2837.00,98.81
2836.00,98.81
2835.00,98.81
2834.00,98.82
2833.00,98.82
2832.00,98.82
2831.00,98.82
2830.00,98.82
2829.00,98.82
2828.00,98.82
2827.00,98.81
2826.00,98.81
2825.00,98.81
2824.00,98.81
2823.00,98.81
2822.00,98.81
2821.00,98.82
2820.00,98.82
2819.00,98.82
2818.00,98.82
2817.00,98.82
2816.00,98.82
2815.00,98.82
2814.00,98.82
2813.00,98.82
2812.00,98.82
2811.00,98.82
2810.00,98.82
2809.00,98.83
2808.00,98.82
2807.00,98.82
2806.00,98.82
2805.00,98.83
2804.00,98.83
2803.00,98.83
2802.00,98.83
2801.00,98.83
2800.00,98.83
2799.00,98.82
2798.00,98.82
2797.00,98.82
2796.00,98.82
2795.00,98.82
2794.00,98.82
2793.00,98.82
2792.00,98.83
2791.00,98.83
2790.00,98.83
2789.00,98.83
2788.00,98.83
2787.00,98.83
2786.00,98.83
2785.00,98.83
2784.00,98.82
2783.00,98.82
2782.00,98.82
2781.00,98.82
2780.00,98.82
2779.00,98.82
2778.00,98.82
2777.00,98.82
2776.00,98.82
2775.00,98.82
2774.00,98.82
2773.00,98.82
2772.00,98.82
2771.00,98.82
2770.00,98.82
2769.00,98.83
2768.00,98.83
2767.00,98.84
2766.00,98.84
2765.00,98.84
2764.00,98.84
2763.00,98.84
2762.00,98.84
2761.00,98.84
2760.00,98.84
2759.00,98.84
2758.00,98.84
2757.00,98.84
2756.00,98.83
2755.00,98.83
2754.00,98.82
2753.00,98.83
2752.00,98.83
2751.00,98.83
2750.00,98.83
2749.00,98.84
2748.00,98.84
2747.00,98.84
2746.00,98.84
2745.00,98.84
2744.00,98.83
2743.00,98.82
2742.00,98.82
2741.00,98.82
2740.00,98.83
2739.00,98.83
2738.00,98.84
2737.00,98.84
2736.00,98.83
2735.00,98.83
2734.00,98.84
2733.00,98.84
2732.00,98.84
2731.00,98.84
2730.00,98.84
2729.00,98.84
2728.00,98.84
2727.00,98.84
2726.00,98.84
2725.00,98.84
2724.00,98.85
2723.00,98.85
2722.00,98.84
2721.00,98.84
2720.00,98.84
2719.00,98.84
2718.00,98.84
2717.00,98.84
2716.00,98.84
2715.00,98.84
2714.00,98.84
2713.00,98.85
2712.00,98.85
2711.00,98.85
2710.00,98.85
2709.00,98.85
2708.00,98.84
2707.00,98.84
2706.00,98.84
2705.00,98.84
2704.00,98.83
2703.00,98.84
2702.00,98.84
2701.00,98.84
2700.00,98.84
2699.00,98.84
2698.00,98.84
2697.00,98.84
2696.00,98.84
2695.00,98.84
2694.00,98.85
2693.00,98.85
2692.00,98.86
2691.00,98.86
2690.00,98.86
2689.00,98.85
2688.00,98.85
2687.00,98.84
2686.00,98.84
2685.00,98.84
2684.00,98.84
2683.00,98.85
2682.00,98.86
2681.00,98.86
2680.00,98.85
2679.00,98.85
2678.00,98.85
2677.00,98.85
2676.00,98.85
2675.00,98.85
2674.00,98.85
2673.00,98.85
2672.00,98.85
2671.00,98.85
2670.00,98.85
2669.00,98.85
2668.00,98.85
2667.00,98.85
2666.00,98.85
2665.00,98.85
2664.00,98.85
2663.00,98.85
2662.00,98.85
2661.00,98.85
2660.00,98.85
2659.00,98.85
2658.00,98.85
2657.00,98.85
2656.00,98.85
2655.00,98.85
2654.00,98.85
2653.00,98.85
2652.00,98.85
2651.00,98.85
2650.00,98.86
2649.00,98.85
2648.00,98.85
2647.00,98.84
2646.00,98.84
2645.00,98.85
2644.00,98.86
2643.00,98.86
2642.00,98.87
2641.00,98.87
2640.00,98.87
2639.00,98.87
2638.00,98.87
2637.00,98.87
2636.00,98.86
2635.00,98.86
2634.00,98.87
2633.00,98.87
2632.00,98.87
2631.00,98.87
2630.00,98.87
2629.00,98.87
2628.00,98.87
2627.00,98.86
2626.00,98.87
2625.00,98.87
2624.00,98.86
2623.00,98.86
2622.00,98.86
2621.00,98.86
2620.00,98.86
2619.00,98.86
2618.00,98.87
2617.00,98.87
2616.00,98.87
2615.00,98.87
2614.00,98.87
2613.00,98.87
2612.00,98.87
2611.00,98.87
2610.00,98.87
2609.00,98.87
2608.00,98.87
2607.00,98.87
2606.00,98.87
2605.00,98.87
2604.00,98.87
2603.00,98.87
2602.00,98.87
2601.00,98.88
2600.00,98.88
2599.00,98.88
2598.00,98.88
2597.00,98.88
2596.00,98.88
2595.00,98.87
2594.00,98.87
2593.00,98.87
2592.00,98.87
2591.00,98.86
2590.00,98.86
2589.00,98.87
2588.00,98.87
2587.00,98.87
2586.00,98.88
2585.00,98.88
2584.00,98.88
2583.00,98.88
2582.00,98.88
2581.00,98.88
2580.00,98.88
2579.00,98.88
2578.00,98.88
2577.00,98.88
2576.00,98.88
2575.00,98.88
2574.00,98.88
2573.00,98.88
2572.00,98.88
2571.00,98.88
2570.00,98.88
2569.00,98.88
2568.00,98.87
2567.00,98.87
2566.00,98.88
2565.00,98.88
2564.00,98.87
2563.00,98.87
2562.00,98.88
2561.00,98.88
2560.00,98.89
2559.00,98.89
2558.00,98.89
2557.00,98.89
2556.00,98.89
2555.00,98.89
2554.00,98.88
2553.00,98.88
2552.00,98.88
2551.00,98.88
2550.00,98.89
2549.00,98.89
2548.00,98.89
2547.00,98.89
2546.00,98.89
2545.00,98.89
2544.00,98.89
2543.00,98.89
2542.00,98.89
2541.00,98.89
2540.00,98.90
2539.00,98.90
2538.00,98.90
2537.00,98.90
2536.00,98.89
2535.00,98.89
2534.00,98.89
2533.00,98.89
2532.00,98.89
2531.00,98.90
2530.00,98.90
2529.00,98.90
2528.00,98.90
2527.00,98.90
2526.00,98.90
2525.00,98.90
2524.00,98.90
2523.00,98.90
2522.00,98.90
2521.00,98.90
2520.00,98.90
2519.00,98.90
2518.00,98.90
2517.00,98.90
2516.00,98.89
2515.00,98.89
2514.00,98.89
2513.00,98.90
2512.00,98.90
2511.00,98.90
2510.00,98.90
2509.00,98.90
2508.00,98.90
2507.00,98.90
2506.00,98.90
2505.00,98.90
2504.00,98.90
2503.00,98.91
2502.00,98.91
2501.00,98.91
2500.00,98.91
2499.00,98.91
2498.00,98.91
2497.00,98.91
2496.00,98.91
2495.00,98.91
2494.00,98.92
2493.00,98.91
2492.00,98.91
2491.00,98.91
2490.00,98.91
2489.00,98.92
2488.00,98.92
2487.00,98.92
2486.00,98.92
2485.00,98.92
2484.00,98.92
2483.00,98.91
2482.00,98.92
2481.00,98.92
2480.00,98.91
2479.00,98.91
2478.00,98.91
2477.00,98.91
2476.00,98.91
2475.00,98.91
2474.00,98.91
2473.00,98.91
2472.00,98.91
2471.00,98.91
2470.00,98.91
2469.00,98.92
2468.00,98.92
2467.00,98.92
2466.00,98.92
2465.00,98.92
2464.00,98.92
2463.00,98.92
2462.00,98.92
2461.00,98.93
2460.00,98.93
2459.00,98.92
2458.00,98.92
2457.00,98.92
2456.00,98.92
2455.00,98.92
2454.00,98.93
2453.00,98.93
2452.00,98.93
2451.00,98.93
2450.00,98.92
2449.00,98.92
2448.00,98.91
2447.00,98.91
2446.00,98.92
2445.00,98.92
2444.00,98.92
2443.00,98.93
2442.00,98.93
2441.00,98.93
2440.00,98.93
2439.00,98.93
2438.00,98.92
2437.00,98.92
2436.00,98.92
2435.00,98.92
2434.00,98.92
2433.00,98.93
2432.00,98.92
2431.00,98.92
2430.00,98.93
2429.00,98.93
2428.00,98.93
2427.00,98.93
2426.00,98.93
2425.00,98.94
2424.00,98.93
2423.00,98.93
2422.00,98.93
2421.00,98.93
2420.00,98.93
2419.00,98.94
2418.00,98.94
2417.00,98.95
2416.00,98.95
2415.00,98.95
2414.00,98.95
2413.00,98.95
2412.00,98.94
2411.00,98.94
2410.00,98.94
2409.00,98.94
2408.00,98.94
2407.00,98.94
2406.00,98.94
2405.00,98.94
2404.00,98.94
2403.00,98.93
2402.00,98.94
2401.00,98.94
2400.00,98.94
2399.00,98.94
2398.00,98.95
2397.00,98.95
2396.00,98.94
2395.00,98.94
2394.00,98.94
2393.00,98.94
2392.00,98.94
2391.00,98.94
2390.00,98.95
2389.00,98.96
2388.00,98.96
2387.00,98.96
2386.00,98.97
2385.00,98.98
2384.00,98.99
2383.00,99.00
2382.00,99.00
2381.00,99.00
2380.00,98.99
2379.00,98.98
2378.00,98.96
2377.00,98.95
2376.00,98.93
2375.00,98.93
2374.00,98.94
2373.00,98.95
2372.00,98.96
2371.00,98.97
2370.00,98.98
2369.00,98.99
2368.00,99.00
2367.00,98.99
2366.00,98.99
2365.00,98.98
2364.00,98.97
2363.00,98.96
2362.00,98.98
2361.00,99.02
2360.00,99.04
2359.00,99.05
2358.00,99.05
2357.00,99.03
2356.00,99.01
2355.00,98.98
2354.00,98.95
2353.00,98.93
2352.00,98.94
2351.00,98.98
2350.00,99.02
2349.00,99.03
2348.00,99.03
2347.00,99.03
2346.00,99.04
2345.00,99.04
2344.00,99.06
2343.00,99.08
2342.00,99.11
2341.00,99.12
2340.00,99.12
2339.00,99.10
2338.00,99.08
2337.00,99.06
2336.00,99.04
2335.00,99.04
2334.00,99.05
2333.00,99.04
2332.00,99.05
2331.00,99.06
2330.00,99.07
2329.00,99.07
2328.00,99.07
2327.00,99.09
2326.00,99.10
2325.00,99.10
2324.00,99.10
2323.00,99.10
2322.00,99.10
2321.00,99.09
2320.00,99.09
2319.00,99.08
2318.00,99.07
2317.00,99.06
2316.00,99.06
2315.00,99.06
2314.00,99.06
2313.00,99.05
2312.00,99.05
2311.00,99.05
2310.00,99.05
2309.00,99.04
2308.00,99.04
2307.00,99.04
2306.00,99.03
2305.00,99.03
2304.00,99.03
2303.00,99.03
2302.00,99.03
2301.00,99.03
2300.00,99.02
2299.00,99.02
2298.00,99.02
2297.00,99.01
2296.00,99.01
2295.00,99.01
2294.00,99.01
2293.00,99.01
2292.00,99.01
2291.00,99.01
2290.00,99.00
2289.00,98.99
2288.00,98.99
2287.00,98.99
2286.00,98.99
2285.00,98.99
2284.00,98.98
2283.00,98.98
2282.00,98.98
2281.00,98.98
2280.00,98.98
2279.00,98.99
2278.00,98.99
2277.00,98.98
2276.00,98.98
2275.00,98.98
2274.00,98.99
2273.00,98.99
2272.00,98.99
2271.00,98.99
2270.00,98.99
2269.00,98.99
2268.00,98.99
2267.00,99.00
2266.00,99.00
2265.00,99.00
2264.00,98.99
2263.00,98.99
2262.00,98.99
2261.00,98.99
2260.00,98.99
2259.00,98.99
2258.00,98.99
2257.00,98.99
2256.00,98.99
2255.00,98.99
2254.00,98.99
2253.00,98.99
2252.00,99.00
2251.00,99.00
2250.00,99.00
2249.00,99.00
2248.00,99.00
2247.00,99.00
2246.00,99.00
2245.00,99.01
2244.00,99.01
2243.00,99.01
2242.00,99.01
2241.00,99.00
2240.00,99.00
2239.00,99.00
2238.00,99.01
2237.00,99.01
2236.00,99.01
2235.00,99.01
2234.00,99.01
2233.00,99.00
2232.00,99.00
2231.00,99.00
2230.00,99.00
2229.00,99.00
2228.00,99.01
2227.00,99.01
2226.00,99.01
2225.00,99.01
2224.00,99.01
2223.00,99.01
2222.00,99.01
2221.00,99.01
2220.00,99.01
2219.00,99.01
2218.00,99.01
2217.00,99.01
2216.00,99.01
2215.00,99.01
2214.00,99.01
2213.00,99.01
2212.00,99.00
2211.00,99.00
2210.00,99.01
2209.00,99.01
2208.00,99.01
2207.00,99.01
2206.00,99.02
2205.00,99.02
2204.00,99.02
2203.00,99.02
2202.00,99.01
2201.00,99.01
2200.00,99.00
2199.00,99.00
2198.00,99.01
2197.00,99.01
2196.00,99.01
2195.00,99.02
2194.00,99.03
2193.00,99.02
2192.00,99.02
2191.00,99.02
2190.00,99.03
2189.00,99.03
2188.00,99.03
2187.00,99.03
2186.00,99.03
2185.00,99.03
2184.00,99.02
2183.00,99.02
2182.00,99.02
2181.00,99.02
2180.00,99.01
2179.00,99.01
2178.00,99.02
2177.00,99.02
2176.00,99.02
2175.00,99.03
2174.00,99.03
2173.00,99.03
2172.00,99.03
2171.00,99.03
2170.00,99.03
2169.00,99.03
2168.00,99.03
2167.00,99.03
2166.00,99.03
2165.00,99.03
2164.00,99.03
2163.00,99.04
2162.00,99.04
2161.00,99.04
2160.00,99.03
2159.00,99.02
2158.00,99.02
2157.00,99.02
2156.00,99.02
2155.00,99.03
2154.00,99.03
2153.00,99.04
2152.00,99.03
2151.00,99.03
2150.00,99.04
2149.00,99.04
2148.00,99.03
2147.00,99.03
2146.00,99.04
2145.00,99.04
2144.00,99.04
2143.00,99.04
2142.00,99.04
2141.00,99.04
2140.00,99.03
2139.00,99.03
2138.00,99.04
2137.00,99.04
2136.00,99.03
2135.00,99.03
2134.00,99.04
2133.00,99.04
2132.00,99.04
2131.00,99.04
2130.00,99.04
2129.00,99.03
2128.00,99.03
2127.00,99.03
2126.00,99.04
2125.00,99.03
2124.00,99.03
2123.00,99.03
2122.00,99.03
2121.00,99.04
2120.00,99.04
2119.00,99.05
2118.00,99.05
2117.00,99.05
2116.00,99.05
2115.00,99.05
2114.00,99.05
2113.00,99.05
2112.00,99.05
2111.00,99.05
2110.00,99.06
2109.00,99.06
2108.00,99.05
2107.00,99.05
2106.00,99.05
2105.00,99.05
2104.00,99.05
2103.00,99.05
2102.00,99.05
2101.00,99.05
2100.00,99.05
2099.00,99.05
2098.00,99.05
2097.00,99.05
2096.00,99.05
2095.00,99.05
2094.00,99.06
2093.00,99.06
2092.00,99.05
2091.00,99.05
2090.00,99.06
2089.00,99.05
2088.00,99.05
2087.00,99.06
2086.00,99.06
2085.00,99.06
2084.00,99.06
2083.00,99.06
2082.00,99.07
2081.00,99.07
2080.00,99.07
2079.00,99.07
2078.00,99.08
2077.00,99.08
2076.00,99.07
2075.00,99.07
2074.00,99.07
2073.00,99.06
2072.00,99.06
2071.00,99.06
2070.00,99.07
2069.00,99.07
2068.00,99.06
2067.00,99.06
2066.00,99.06
2065.00,99.06
2064.00,99.06
2063.00,99.06
2062.00,99.07
2061.00,99.07
2060.00,99.07
2059.00,99.07
2058.00,99.08
2057.00,99.08
2056.00,99.07
2055.00,99.06
2054.00,99.06
2053.00,99.06
2052.00,99.06
2051.00,99.06
2050.00,99.06
2049.00,99.06
2048.00,99.05
2047.00,99.06
2046.00,99.07
2045.00,99.07
2044.00,99.07
2043.00,99.08
2042.00,99.08
2041.00,99.08
2040.00,99.08
2039.00,99.08
2038.00,99.08
2037.00,99.08
2036.00,99.07
2035.00,99.07
2034.00,99.08
2033.00,99.07
2032.00,99.07
2031.00,99.07
2030.00,99.08
2029.00,99.08
2028.00,99.07
2027.00,99.07
2026.00,99.08
2025.00,99.08
2024.00,99.08
2023.00,99.09
2022.00,99.09
2021.00,99.09
2020.00,99.08
2019.00,99.08
2018.00,99.09
2017.00,99.09
2016.00,99.08
2015.00,99.08
2014.00,99.09
2013.00,99.09
2012.00,99.08
2011.00,99.08
2010.00,99.08
2009.00,99.08
2008.00,99.08
2007.00,99.08
2006.00,99.09
2005.00,99.09
2004.00,99.09
2003.00,99.08
2002.00,99.09
2001.00,99.09
2000.00,99.08
1999.00,99.09
1998.00,99.09
1997.00,99.10
1996.00,99.09
1995.00,99.08
1994.00,99.07
1993.00,99.07
1992.00,99.07
1991.00,99.08
1990.00,99.10
1989.00,99.10
1988.00,99.10
1987.00,99.09
1986.00,99.10
1985.00,99.10
1984.00,99.09
1983.00,99.09
1982.00,99.09
1981.00,99.09
1980.00,99.09
1979.00,99.10
1978.00,99.10
1977.00,99.10
1976.00,99.10
1975.00,99.10
1974.00,99.10
1973.00,99.10
1972.00,99.10
1971.00,99.09
1970.00,99.08
1969.00,99.07
1968.00,99.07
1967.00,99.08
1966.00,99.09
1965.00,99.10
1964.00,99.11
1963.00,99.11
1962.00,99.10
1961.00,99.10
1960.00,99.11
1959.00,99.11
1958.00,99.10
1957.00,99.10
1956.00,99.11
1955.00,99.11
1954.00,99.10
1953.00,99.10
1952.00,99.10
1951.00,99.11
1950.00,99.11
1949.00,99.11
1948.00,99.11
1947.00,99.11
1946.00,99.10
1945.00,99.08
1944.00,99.07
1943.00,99.07
1942.00,99.09
1941.00,99.11
1940.00,99.12
1939.00,99.13
1938.00,99.13
1937.00,99.12
1936.00,99.12
1935.00,99.12
1934.00,99.11
1933.00,99.10
1932.00,99.10
1931.00,99.11
1930.00,99.11
1929.00,99.10
1928.00,99.10
1927.00,99.11
1926.00,99.12
1925.00,99.10
1924.00,99.09
1923.00,99.11
1922.00,99.13
1921.00,99.12
1920.00,99.11
1919.00,99.11
1918.00,99.12
1917.00,99.13
1916.00,99.13
1915.00,99.15
1914.00,99.16
1913.00,99.13
1912.00,99.11
1911.00,99.12
1910.00,99.13
1909.00,99.11
1908.00,99.10
1907.00,99.12
1906.00,99.14
1905.00,99.13
1904.00,99.11
1903.00,99.12
1902.00,99.14
1901.00,99.12
1900.00,99.10
1899.00,99.12
1898.00,99.14
1897.00,99.12
1896.00,99.10
1895.00,99.12
1894.00,99.14
1893.00,99.12
1892.00,99.08
1891.00,99.07
1890.00,99.07
1889.00,99.07
1888.00,99.08
1887.00,99.12
1886.00,99.15
1885.00,99.13
1884.00,99.11
1883.00,99.13
1882.00,99.16
1881.00,99.15
1880.00,99.13
1879.00,99.15
1878.00,99.17
1877.00,99.16
1876.00,99.13
1875.00,99.14
1874.00,99.16
1873.00,99.15
1872.00,99.10
1871.00,99.06
1870.00,99.05
1869.00,99.04
1868.00,99.04
1867.00,99.10
1866.00,99.17
1865.00,99.17
1864.00,99.15
1863.00,99.15
1862.00,99.17
1861.00,99.15
1860.00,99.11
1859.00,99.12
1858.00,99.15
1857.00,99.14
1856.00,99.12
1855.00,99.13
1854.00,99.15
1853.00,99.14
1852.00,99.14
1851.00,99.15
1850.00,99.17
1849.00,99.16
1848.00,99.14
1847.00,99.12
1846.00,99.11
1845.00,99.10
1844.00,99.12
1843.00,99.17
1842.00,99.22
1841.00,99.22
1840.00,99.19
1839.00,99.18
1838.00,99.18
1837.00,99.17
1836.00,99.16
1835.00,99.17
1834.00,99.16
1833.00,99.13
1832.00,99.06
1831.00,99.01
1830.00,99.01
1829.00,99.05
1828.00,99.09
1827.00,99.13
1826.00,99.16
1825.00,99.16
1824.00,99.16
1823.00,99.16
1822.00,99.18
1821.00,99.19
1820.00,99.16
1819.00,99.15
1818.00,99.18
1817.00,99.18
1816.00,99.15
1815.00,99.13
1814.00,99.16
1813.00,99.17
1812.00,99.14
1811.00,99.13
1810.00,99.17
1809.00,99.19
1808.00,99.16
1807.00,99.16
1806.00,99.19
1805.00,99.19
1804.00,99.15
1803.00,99.16
1802.00,99.20
1801.00,99.21
1800.00,99.18
1799.00,99.19
1798.00,99.23
1797.00,99.23
1796.00,99.21
1795.00,99.23
1794.00,99.28
1793.00,99.29
1792.00,99.24
1791.00,99.22
1790.00,99.25
1789.00,99.26
1788.00,99.23
1787.00,99.23
1786.00,99.26
1785.00,99.24
1784.00,99.20
1783.00,99.18
1782.00,99.19
1781.00,99.22
1780.00,99.22
1779.00,99.22
1778.00,99.23
1777.00,99.23
1776.00,99.22
1775.00,99.20
1774.00,99.20
1773.00,99.23
1772.00,99.22
1771.00,99.20
1770.00,99.23
1769.00,99.29
1768.00,99.31
1767.00,99.27
1766.00,99.25
1765.00,99.25
1764.00,99.23
1763.00,99.17
1762.00,99.16
1761.00,99.20
1760.00,99.22
1759.00,99.21
1758.00,99.22
1757.00,99.27
1756.00,99.31
1755.00,99.32
1754.00,99.38
1753.00,99.52
1752.00,99.61
1751.00,99.56
1750.00,99.45
1749.00,99.38
1748.00,99.35
1747.00,99.31
1746.00,99.28
1745.00,99.29
1744.00,99.30
1743.00,99.26
1742.00,99.25
1741.00,99.28
1740.00,99.29
1739.00,99.28
1738.00,99.29
1737.00,99.38
1736.00,99.52
1735.00,99.63
1734.00,99.63
1733.00,99.56
1732.00,99.45
1731.00,99.38
1730.00,99.32
1729.00,99.27
1728.00,99.25
1727.00,99.23
1726.00,99.23
1725.00,99.23
1724.00,99.22
1723.00,99.24
1722.00,99.27
1721.00,99.25
1720.00,99.16
1719.00,99.17
1718.00,99.30
1717.00,99.34
1716.00,99.29
1715.00,99.32
1714.00,99.40
1713.00,99.36
1712.00,99.26
1711.00,99.26
1710.00,99.31
1709.00,99.29
1708.00,99.21
1707.00,99.18
1706.00,99.23
1705.00,99.21
1704.00,99.18
1703.00,99.28
1702.00,99.45
1701.00,99.49
1700.00,99.39
1699.00,99.34
1698.00,99.33
1697.00,99.26
1696.00,99.15
1695.00,99.16
1694.00,99.26
1693.00,99.32
1692.00,99.31
1691.00,99.28
1690.00,99.29
1689.00,99.31
1688.00,99.30
1687.00,99.21
1686.00,99.09
1685.00,99.03
1684.00,99.08
1683.00,99.19
1682.00,99.24
1681.00,99.28
1680.00,99.32
1679.00,99.33
1678.00,99.29
1677.00,99.31
1676.00,99.36
1675.00,99.34
1674.00,99.26
1673.00,99.25
1672.00,99.30
1671.00,99.31
1670.00,99.26
1669.00,99.23
1668.00,99.26
1667.00,99.27
1666.00,99.23
1665.00,99.20
1664.00,99.22
1663.00,99.25
1662.00,99.22
1661.00,99.24
1660.00,99.30
1659.00,99.31
1658.00,99.24
1657.00,99.20
1656.00,99.19
1655.00,99.16
1654.00,99.11
1653.00,99.10
1652.00,99.14
1651.00,99.18
1650.00,99.21
1649.00,99.22
1648.00,99.26
1647.00,99.29
1646.00,99.33
1645.00,99.34
1644.00,99.34
1643.00,99.34
1642.00,99.34
1641.00,99.33
1640.00,99.30
1639.00,99.27
1638.00,99.26
1637.00,99.28
1636.00,99.28
1635.00,99.26
1634.00,99.25
1633.00,99.25
1632.00,99.27
1631.00,99.30
1630.00,99.29
1629.00,99.25
1628.00,99.23
1627.00,99.23
1626.00,99.21
1625.00,99.21
1624.00,99.23
1623.00,99.25
1622.00,99.22
1621.00,99.20
1620.00,99.23
1619.00,99.26
1618.00,99.24
1617.00,99.21
1616.00,99.24
1615.00,99.27
1614.00,99.24
1613.00,99.21
1612.00,99.25
1611.00,99.29
1610.00,99.26
1609.00,99.21
1608.00,99.24
1607.00,99.26
1606.00,99.22
1605.00,99.20
1604.00,99.24
1603.00,99.26
1602.00,99.22
1601.00,99.20
1600.00,99.24
1599.00,99.25
1598.00,99.21
1597.00,99.19
1596.00,99.22
1595.00,99.23
1594.00,99.21
1593.00,99.20
1592.00,99.23
1591.00,99.26
1590.00,99.22
1589.00,99.19
1588.00,99.21
1587.00,99.23
1586.00,99.20
1585.00,99.18
1584.00,99.23
1583.00,99.25
1582.00,99.18
1581.00,99.13
1580.00,99.14
1579.00,99.13
1578.00,99.07
1577.00,99.07
1576.00,99.16
1575.00,99.21
1574.00,99.18
1573.00,99.17
1572.00,99.20
1571.00,99.20
1570.00,99.14
1569.00,99.17
1568.00,99.30
1567.00,99.35
1566.00,99.31
1565.00,99.30
1564.00,99.33
1563.00,99.31
1562.00,99.21
1561.00,99.18
1560.00,99.28
1559.00,99.33
1558.00,99.29
1557.00,99.32
1556.00,99.44
1555.00,99.50
1554.00,99.48
1553.00,99.48
1552.00,99.48
1551.00,99.45
1550.00,99.41
1549.00,99.40
1548.00,99.45
1547.00,99.48
1546.00,99.43
1545.00,99.38
1544.00,99.36
1543.00,99.36
1542.00,99.37
1541.00,99.37
1540.00,99.35
1539.00,99.34
1538.00,99.32
1537.00,99.29
1536.00,99.29
1535.00,99.29
1534.00,99.27
1533.00,99.27
1532.00,99.27
1531.00,99.31
1530.00,99.33
1529.00,99.31
1528.00,99.29
1527.00,99.32
1526.00,99.37
1525.00,99.39
1524.00,99.37
1523.00,99.36
1522.00,99.37
1521.00,99.35
1520.00,99.31
1519.00,99.29
1518.00,99.31
1517.00,99.33
1516.00,99.33
1515.00,99.35
1514.00,99.41
1513.00,99.45
1512.00,99.41
1511.00,99.37
1510.00,99.41
1509.00,99.50
1508.00,99.56
1507.00,99.55
1506.00,99.54
1505.00,99.53
1504.00,99.45
1503.00,99.37
1502.00,99.34
1501.00,99.33
1500.00,99.27
1499.00,99.23
1498.00,99.30
1497.00,99.40
1496.00,99.40
1495.00,99.37
1494.00,99.40
1493.00,99.42
1492.00,99.40
1491.00,99.38
1490.00,99.40
1489.00,99.36
1488.00,99.27
1487.00,99.27
1486.00,99.29
1485.00,99.28
1484.00,99.26
1483.00,99.27
1482.00,99.31
1481.00,99.31
1480.00,99.30
1479.00,99.31
1478.00,99.34
1477.00,99.33
1476.00,99.33
1475.00,99.43
1474.00,99.55
1473.00,99.58
1472.00,99.51
1471.00,99.44
1470.00,99.40
1469.00,99.36
1468.00,99.30
1467.00,99.28
1466.00,99.30
1465.00,99.34
1464.00,99.35
1463.00,99.33
1462.00,99.34
1461.00,99.35
1460.00,99.33
1459.00,99.33
1458.00,99.42
1457.00,99.56
1456.00,99.61
1455.00,99.53
1454.00,99.44
1453.00,99.41
1452.00,99.38
1451.00,99.34
1450.00,99.34
1449.00,99.36
1448.00,99.35
1447.00,99.29
1446.00,99.25
1445.00,99.30
1444.00,99.32
1443.00,99.27
1442.00,99.26
1441.00,99.31
1440.00,99.34
1439.00,99.32
1438.00,99.34
1437.00,99.42
1436.00,99.45
1435.00,99.38
1434.00,99.33
1433.00,99.36
1432.00,99.35
1431.00,99.28
1430.00,99.25
1429.00,99.30
1428.00,99.34
1427.00,99.32
1426.00,99.30
1425.00,99.38
1424.00,99.43
1423.00,99.37
1422.00,99.30
1421.00,99.32
1420.00,99.35
1419.00,99.32
1418.00,99.34
1417.00,99.42
1416.00,99.45
1415.00,99.36
1414.00,99.30
1413.00,99.33
1412.00,99.36
1411.00,99.31
1410.00,99.27
1409.00,99.30
1408.00,99.33
1407.00,99.29
1406.00,99.25
1405.00,99.28
1404.00,99.32
1403.00,99.30
1402.00,99.28
1401.00,99.31
1400.00,99.35
1399.00,99.35
1398.00,99.33
1397.00,99.34
1396.00,99.34
1395.00,99.30
1394.00,99.26
1393.00,99.30
1392.00,99.35
1391.00,99.33
1390.00,99.28
1389.00,99.27
1388.00,99.31
1387.00,99.32
1386.00,99.30
1385.00,99.31
1384.00,99.31
1383.00,99.29
1382.00,99.28
1381.00,99.29
1380.00,99.31
1379.00,99.31
1378.00,99.30
1377.00,99.29
1376.00,99.30
1375.00,99.29
1374.00,99.28
1373.00,99.28
1372.00,99.30
1371.00,99.31
1370.00,99.29
1369.00,99.29
1368.00,99.31
1367.00,99.32
1366.00,99.29
1365.00,99.27
1364.00,99.27
1363.00,99.27
1362.00,99.27
1361.00,99.29
1360.00,99.31
1359.00,99.32
1358.00,99.30
1357.00,99.30
1356.00,99.30
1355.00,99.29
1354.00,99.28
1353.00,99.28
1352.00,99.28
1351.00,99.28
1350.00,99.27
1349.00,99.27
1348.00,99.28
1347.00,99.28
1346.00,99.27
1345.00,99.28
1344.00,99.30
1343.00,99.31
1342.00,99.31
1341.00,99.33
1340.00,99.35
1339.00,99.35
1338.00,99.32
1337.00,99.31
1336.00,99.31
1335.00,99.31
1334.00,99.29
1333.00,99.30
1332.00,99.30
1331.00,99.30
1330.00,99.28
1329.00,99.27
1328.00,99.28
1327.00,99.28
1326.00,99.27
1325.00,99.27
1324.00,99.29
1323.00,99.29
1322.00,99.28
1321.00,99.29
1320.00,99.31
1319.00,99.32
1318.00,99.31
1317.00,99.32
1316.00,99.34
1315.00,99.34
1314.00,99.33
1313.00,99.33
1312.00,99.32
1311.00,99.30
1310.00,99.29
1309.00,99.30
1308.00,99.32
1307.00,99.33
1306.00,99.32
1305.00,99.32
1304.00,99.33
1303.00,99.32
1302.00,99.30
1301.00,99.30
1300.00,99.31
1299.00,99.30
1298.00,99.29
1297.00,99.29
1296.00,99.31
1295.00,99.30
1294.00,99.28
1293.00,99.28
1292.00,99.29
1291.00,99.30
1290.00,99.29
1289.00,99.30
1288.00,99.32
1287.00,99.31
1286.00,99.30
1285.00,99.31
1284.00,99.32
1283.00,99.31
1282.00,99.30
1281.00,99.30
1280.00,99.31
1279.00,99.30
1278.00,99.28
1277.00,99.29
1276.00,99.31
1275.00,99.31
1274.00,99.30
1273.00,99.31
1272.00,99.32
1271.00,99.32
1270.00,99.31
1269.00,99.31
1268.00,99.31
1267.00,99.30
1266.00,99.28
1265.00,99.29
1264.00,99.30
1263.00,99.29
1262.00,99.28
1261.00,99.28
1260.00,99.29
1259.00,99.28
1258.00,99.27
1257.00,99.27
1256.00,99.28
1255.00,99.28
1254.00,99.27
1253.00,99.29
1252.00,99.30
1251.00,99.30
1250.00,99.30
1249.00,99.30
1248.00,99.31
1247.00,99.29
1246.00,99.27
1245.00,99.26
1244.00,99.27
1243.00,99.27
1242.00,99.27
1241.00,99.28
1240.00,99.29
1239.00,99.28
1238.00,99.27
1237.00,99.27
1236.00,99.27
1235.00,99.26
1234.00,99.25
1233.00,99.26
1232.00,99.27
1231.00,99.27
1230.00,99.26
1229.00,99.27
1228.00,99.28
1227.00,99.28
1226.00,99.27
1225.00,99.28
1224.00,99.29
1223.00,99.29
1222.00,99.27
1221.00,99.27
1220.00,99.28
1219.00,99.27
1218.00,99.26
1217.00,99.27
1216.00,99.28
1215.00,99.27
1214.00,99.25
1213.00,99.26
1212.00,99.27
1211.00,99.27
1210.00,99.26
1209.00,99.26
1208.00,99.27
1207.00,99.26
1206.00,99.25
1205.00,99.25
1204.00,99.26
1203.00,99.26
1202.00,99.25
1201.00,99.26
1200.00,99.27
1199.00,99.26
1198.00,99.24
1197.00,99.24
1196.00,99.25
1195.00,99.24
1194.00,99.24
1193.00,99.25
1192.00,99.26
1191.00,99.25
1190.00,99.23
1189.00,99.23
1188.00,99.23
1187.00,99.22
1186.00,99.21
1185.00,99.21
1184.00,99.23
1183.00,99.22
1182.00,99.22
1181.00,99.23
1180.00,99.24
1179.00,99.23
1178.00,99.21
1177.00,99.22
1176.00,99.23
1175.00,99.23
1174.00,99.22
1173.00,99.23
1172.00,99.24
1171.00,99.24
1170.00,99.23
1169.00,99.24
1168.00,99.25
1167.00,99.24
1166.00,99.22
1165.00,99.22
1164.00,99.23
1163.00,99.22
1162.00,99.21
1161.00,99.22
1160.00,99.24
1159.00,99.24
1158.00,99.23
1157.00,99.24
1156.00,99.24
1155.00,99.23
1154.00,99.22
1153.00,99.24
1152.00,99.27
1151.00,99.27
1150.00,99.26
1149.00,99.27
1148.00,99.29
1147.00,99.29
1146.00,99.27
1145.00,99.25
1144.00,99.24
1143.00,99.22
1142.00,99.21
1141.00,99.24
1140.00,99.28
1139.00,99.30
1138.00,99.29
1137.00,99.29
1136.00,99.29
1135.00,99.26
1134.00,99.24
1133.00,99.24
1132.00,99.26
1131.00,99.27
1130.00,99.26
1129.00,99.25
1128.00,99.24
1127.00,99.21
1126.00,99.20
1125.00,99.22
1124.00,99.26
1123.00,99.26
1122.00,99.25
1121.00,99.25
1120.00,99.25
1119.00,99.24
1118.00,99.22
1117.00,99.23
1116.00,99.24
1115.00,99.23
1114.00,99.21
1113.00,99.22
1112.00,99.23
1111.00,99.22
1110.00,99.20
1109.00,99.22
1108.00,99.25
1107.00,99.25
1106.00,99.23
1105.00,99.22
1104.00,99.22
1103.00,99.21
1102.00,99.19
1101.00,99.22
1100.00,99.25
1099.00,99.24
1098.00,99.21
1097.00,99.21
1096.00,99.23
1095.00,99.22
1094.00,99.20
1093.00,99.21
1092.00,99.21
1091.00,99.18
1090.00,99.14
1089.00,99.14
1088.00,99.16
1087.00,99.16
1086.00,99.15
1085.00,99.16
1084.00,99.17
1083.00,99.14
1082.00,99.10
1081.00,99.10
1080.00,99.13
1079.00,99.14
1078.00,99.14
1077.00,99.17
1076.00,99.19
1075.00,99.16
1074.00,99.12
1073.00,99.14
1072.00,99.18
1071.00,99.19
1070.00,99.18
1069.00,99.21
1068.00,99.24
1067.00,99.22
1066.00,99.18
1065.00,99.19
1064.00,99.22
1063.00,99.22
1062.00,99.20
1061.00,99.19
1060.00,99.20
1059.00,99.17
1058.00,99.14
1057.00,99.14
1056.00,99.16
1055.00,99.13
1054.00,99.11
1053.00,99.15
1052.00,99.21
1051.00,99.23
1050.00,99.20
1049.00,99.18
1048.00,99.17
1047.00,99.13
1046.00,99.12
1045.00,99.17
1044.00,99.25
1043.00,99.27
1042.00,99.25
1041.00,99.27
1040.00,99.30
1039.00,99.29
1038.00,99.28
1037.00,99.31
1036.00,99.35
1035.00,99.32
1034.00,99.27
1033.00,99.25
1032.00,99.25
1031.00,99.20
1030.00,99.18
1029.00,99.23
1028.00,99.31
1027.00,99.33
1026.00,99.32
1025.00,99.34
1024.00,99.36
1023.00,99.33
1022.00,99.29
1021.00,99.30
1020.00,99.32
1019.00,99.27
1018.00,99.22
1017.00,99.27
1016.00,99.35
1015.00,99.32
1014.00,99.24
1013.00,99.22
1012.00,99.25
1011.00,99.24
1010.00,99.21
1009.00,99.23
1008.00,99.26
1007.00,99.23
1006.00,99.18
1005.00,99.19
1004.00,99.22
1003.00,99.18
1002.00,99.14
1001.00,99.19
1000.00,99.31
999.00,99.37
998.00,99.37
997.00,99.41
996.00,99.44
995.00,99.37
994.00,99.25
993.00,99.19
992.00,99.23
991.00,99.27
990.00,99.32
989.00,99.43
988.00,99.49
987.00,99.42
986.00,99.31
985.00,99.29
984.00,99.30
983.00,99.25
982.00,99.17
981.00,99.19
980.00,99.21
979.00,99.12
978.00,99.02
977.00,99.10
976.00,99.26
975.00,99.32
974.00,99.27
973.00,99.30
972.00,99.39
971.00,99.40
970.00,99.32
969.00,99.29
968.00,99.24
967.00,99.06
966.00,98.87
965.00,98.88
964.00,99.00
963.00,99.05
962.00,99.06
961.00,99.19
960.00,99.36
959.00,99.38
958.00,99.35
957.00,99.43
956.00,99.51
955.00,99.39
954.00,99.24
953.00,99.29
952.00,99.39
951.00,99.27
950.00,99.14
949.00,99.30
948.00,99.61
947.00,99.71
946.00,99.64
945.00,99.64
944.00,99.55
943.00,99.12
942.00,98.69
941.00,98.72
940.00,98.90
939.00,98.71
938.00,98.40
937.00,98.58
936.00,99.13
935.00,99.49
934.00,99.66
933.00,100.06
932.00,100.45
931.00,100.28
930.00,99.87
929.00,99.83
928.00,99.73
927.00,98.82
926.00,97.66
925.00,97.34
924.00,97.69
923.00,97.79
922.00,97.71
921.00,98.14
920.00,98.79
919.00,98.81
918.00,98.60
917.00,99.08
916.00,99.56
915.00,98.81
914.00,97.61
913.00,97.46
912.00,97.88
911.00,97.33
910.00,96.37
909.00,96.61
908.00,97.46
907.00,97.21
906.00,96.38
905.00,96.94
904.00,98.12
903.00,97.75
902.00,97.01
901.00,98.17
900.00,99.05
899.00,96.10
898.00,91.55
897.00,89.59
896.00,89.51
895.00,88.36
894.00,87.14
893.00,88.23
892.00,91.22
891.00,93.89
890.00,94.85
889.00,98.06
888.00,100.75
887.00,95.61
886.00,90.02
885.00,91.04
884.00,94.38
883.00,93.26
882.00,88.57
881.00,86.79
880.00,86.71
879.00,83.35
878.00,81.78
877.00,90.31
876.00,107.81
875.00,121.50
874.00,118.18
873.00,140.11
872.00,171.31
871.00,136.57
870.00,100.68
869.00,104.59
868.00,128.80
867.00,130.33
866.00,96.37
865.00,86.76
864.00,65.53
863.00,29.89
862.00,40.89
861.00,40.45
860.00,43.03
859.00,68.43
858.00,64.33
857.00,61.13
856.00,105.67
855.00,121.42
854.00,17.38
853.00,53.27
852.00,79.23
851.00,68.81
850.00,69.34
849.00,166.63
848.00,57.96
847.00,9.61
846.00,18.04
845.00,65.72
844.00,93.82
843.00,125.14
842.00,51.24
841.00,58.30
840.00,79.63
839.00,55.75
838.00,20.51
837.00,30.67
836.00,36.16
835.00,22.28
834.00,20.45
833.00,42.19
832.00,120.53
831.00,56.78
830.00,10.09
829.00,34.67
828.00,265.42
827.00,126.74
826.00,42.97
825.00,198.87
824.00,125.83
823.00,101.05
822.00,42.34
821.00,79.46
820.00,80.94
819.00,126.28
818.00,118.81
817.00,28.69
816.00,183.38
815.00,64.02
814.00,9.37
813.00,42.78
812.00,87.11
811.00,68.33
810.00,75.21
809.00,82.39
808.00,96.92
807.00,46.25
806.00,13.07
805.00,37.48
804.00,59.65
803.00,50.71
802.00,44.91
801.00,39.84
800.00,40.00
799.00,60.67
798.00,53.47
797.00,98.86
796.00,261.90
795.00,128.34
794.00,47.46
793.00,121.73
792.00,270.38
791.00,94.56
790.00,26.44
789.00,74.91
788.00,127.02
787.00,120.54
786.00,49.91
785.00,192.58
784.00,213.19
783.00,164.68
782.00,122.97
781.00,110.69
780.00,48.11
779.00,53.51
778.00,65.35
777.00,13.28
776.00,65.06
775.00,48.84
774.00,18.78
773.00,174.75
772.00,99.75
771.00,128.00
770.00,36.35
769.00,150.32
768.00,232.12
767.00,99.98
766.00,40.68
765.00,31.90
764.00,33.47
763.00,39.49
762.00,52.39
761.00,73.29
760.00,81.19
759.00,134.46
758.00,130.99
757.00,34.85
756.00,24.51
755.00,26.38
754.00,40.16
753.00,24.23
752.00,19.42
751.00,13.35
750.00,62.47
749.00,67.12
748.00,70.98
747.00,128.11
746.00,104.98
745.00,262.47
744.00,78.70
743.00,42.64
742.00,152.93
741.00,72.21
740.00,65.91
739.00,210.53
738.00,177.11
737.00,274.26
736.00,80.62
735.00,69.98
734.00,92.95
733.00,114.43
732.00,111.23
731.00,139.24
730.00,46.70
729.00,128.50
728.00,355.52
727.00,282.69
726.00,88.33
725.00,234.71
724.00,135.63
723.00,79.13
722.00,63.29
721.00,104.91
720.00,232.00
719.00,134.17
718.00,86.55
717.00,255.78
716.00,111.49
715.00,139.36
714.00,131.24
713.00,192.76
712.00,188.05
711.00,181.92
710.00,79.27
709.00,145.54
708.00,316.32
707.00,112.53
706.00,31.83
705.00,35.42
704.00,25.86
703.00,20.04
702.00,49.51
701.00,118.93
700.00,140.22
699.00,259.00
698.00,243.68
697.00,156.96
696.00,135.45
695.00,280.05
694.00,84.87
693.00,73.64
692.00,139.68
691.00,39.25
690.00,31.70
689.00,44.11
688.00,34.49
687.00,22.01
686.00,25.93
685.00,116.34
684.00,249.28
683.00,155.92
682.00,60.47
681.00,80.39
680.00,65.82
679.00,26.28
678.00,2.38
677.00,63.44
676.00,132.54
675.00,234.37
674.00,263.14
673.00,150.93
672.00,100.25
671.00,79.91
670.00,46.79
669.00,29.41
668.00,63.69
667.00,195.64
666.00,99.56
665.00,349.81
664.00,157.61
663.00,107.07
662.00,91.03
661.00,43.63
660.00,27.20
659.00,27.98
658.00,317.08
657.00,84.83
656.00,144.69
655.00,180.27
654.00,70.30
653.00,148.61
652.00,81.18
651.00,64.71
650.00,39.19
649.00,34.42
648.00,38.90
647.00,37.38
646.00,67.70
645.00,45.53
644.00,40.87
643.00,92.19
642.00,58.49
641.00,67.10
640.00,92.60
639.00,31.94
638.00,29.67
637.00,14.01
636.00,80.97
635.00,69.40
634.00,38.61
633.00,115.67
632.00,96.40
631.00,50.42
630.00,20.11
629.00,73.86
628.00,158.89
627.00,80.16
626.00,65.48
625.00,80.03
624.00,81.31
623.00,90.67
622.00,95.95
621.00,518.71
620.00,221.11
619.00,126.83
618.00,33.87
617.00,1.60
616.00,17.32
615.00,29.43
614.00,38.04
613.00,64.75
612.00,155.53
611.00,178.09
610.00,387.40
609.00,294.14
608.00,216.94
607.00,108.16
606.00,18.69
605.00,29.82
604.00,108.52
603.00,58.35
602.00,30.99
601.00,59.44
600.00,16.56
599.00,29.63
598.00,43.56
597.00,15.63
596.00,46.09
595.00,100.59
594.00,100.73
593.00,136.10
592.00,87.82
591.00,144.94
590.00,34.39
589.00,13.21
588.00,90.97
587.00,68.07
586.00,42.11
585.00,70.52
584.00,84.15
583.00,109.43
582.00,48.53
581.00,110.17
580.00,142.51
579.00,242.08
578.00,53.08
577.00,150.12
576.00,205.52
575.00,365.42
574.00,33.53
573.00,79.41
572.00,236.77
571.00,46.35
570.00,23.97
569.00,37.26
568.00,594.54
567.00,44.49
566.00,-2.06
565.00,60.57
564.00,123.90
563.00,71.22
562.00,79.74
561.00,376.87
560.00,152.95
559.00,405.69
558.00,171.37
557.00,93.95
556.00,60.89
555.00,55.45
554.00,49.94
553.00,15.65
552.00,40.54
551.00,37.25
550.00,68.74
549.00,128.99
548.00,91.83
547.00,83.48
546.00,76.85
545.00,75.07
544.00,52.13
543.00,31.97
542.00,16.35
541.00,52.61
540.00,115.73
539.00,61.68
538.00,34.40
537.00,24.09
536.00,41.88
535.00,41.78
534.00,43.67
533.00,132.81
532.00,145.97
531.00,143.93
530.00,40.84
529.00,85.98
528.00,323.85
527.00,149.33
526.00,86.66
525.00,98.64
524.00,30.81
523.00,83.62
522.00,98.55
521.00,63.31
520.00,68.05
519.00,58.57
518.00,53.61
517.00,60.92
516.00,25.33
515.00,24.86
514.00,18.57
513.00,35.39
512.00,94.33
511.00,76.05
510.00,64.99
509.00,155.10
508.00,63.06
507.00,67.38
506.00,49.97
505.00,54.21
504.00,19.65
503.00,82.68
502.00,176.93
501.00,44.77
500.00,14.98
499.00,35.93
498.00,52.06
497.00,32.98
496.00,23.72
495.00,63.70
494.00,125.26
493.00,134.29
492.00,97.80
491.00,198.60
490.00,76.65
489.00,40.90
488.00,23.94
487.00,110.32
486.00,155.56
485.00,86.70
484.00,14.41
483.00,66.40
482.00,539.75
481.00,67.28
480.00,27.07
479.00,67.31
478.00,137.04
477.00,237.43
476.00,31.94
475.00,43.58
474.00,27.72
473.00,17.61
472.00,76.76
471.00,62.03
470.00,59.39
469.00,111.71
468.00,398.92
467.00,52.27
466.00,8.60
465.00,19.89
464.00,64.24
463.00,61.01
462.00,66.57
461.00,109.06
460.00,45.21
459.00,64.24
458.00,44.68
457.00,41.10
456.00,74.74
455.00,22.67
454.00,5.42
453.00,23.87
452.00,61.45
451.00,46.36
450.00,6.12
