Created as New Dataset,Sample 003 By Administrator Date Tuesday, October 21 2025
cm-1,%T
4000.00,99.85
3999.00,99.86
3998.00,99.86
3997.00,99.85
3996.00,99.85
3995.00,99.84
3994.00,99.84
3993.00,99.84
3992.00,99.84
3991.00,99.85
3990.00,99.85
3989.00,99.85
3988.00,99.85
3987.00,99.85
3986.00,99.85
3985.00,99.85
3984.00,99.85
3983.00,99.85
3982.00,99.84
3981.00,99.84
3980.00,99.84
3979.00,99.84
3978.00,99.85
3977.00,99.85
3976.00,99.85
3975.00,99.84
3974.00,99.84
3973.00,99.84
3972.00,99.84
3971.00,99.84
3970.00,99.84
3969.00,99.84
3968.00,99.84
3967.00,99.84
3966.00,99.84
3965.00,99.84
3964.00,99.84
3963.00,99.84
3962.00,99.85
3961.00,99.85
3960.00,99.85
3959.00,99.85
3958.00,99.84
3957.00,99.84
3956.00,99.84
3955.00,99.84
3954.00,99.84
3953.00,99.84
3952.00,99.84
3951.00,99.84
3950.00,99.84
3949.00,99.85
3948.00,99.85
3947.00,99.86
3946.00,99.86
3945.00,99.86
3944.00,99.85
3943.00,99.84
3942.00,99.84
3941.00,99.84
3940.00,99.85
3939.00,99.86
3938.00,99.86
3937.00,99.87
3936.00,99.87
3935.00,99.86
3934.00,99.86
3933.00,99.85
3932.00,99.85
3931.00,99.85
3930.00,99.86
3929.00,99.86
3928.00,99.86
3927.00,99.86
3926.00,99.85
3925.00,99.85
3924.00,99.85
3923.00,99.86
3922.00,99.87
3921.00,99.87
3920.00,99.86
3919.00,99.86
3918.00,99.85
3917.00,99.85
3916.00,99.85
3915.00,99.85
3914.00,99.85
3913.00,99.85
3912.00,99.85
3911.00,99.86
3910.00,99.87
3909.00,99.88
3908.00,99.88
3907.00,99.88
3906.00,99.88
3905.00,99.89
3904.00,99.90
3903.00,99.90
3902.00,99.90
3901.00,99.90
3900.00,99.88
3899.00,99.87
3898.00,99.87
3897.00,99.87
3896.00,99.88
3895.00,99.88
3894.00,99.89
3893.00,99.90
3892.00,99.92
3891.00,99.91
3890.00,99.90
3889.00,99.89
3888.00,99.90
3887.00,99.90
3886.00,99.89
3885.00,99.88
3884.00,99.87
3883.00,99.87
3882.00,99.87
3881.00,99.86
3880.00,99.86
3879.00,99.87
3878.00,99.89
3877.00,99.89
3876.00,99.89
3875.00,99.88
3874.00,99.89
3873.00,99.90
3872.00,99.93
3871.00,99.95
3870.00,99.92
3869.00,99.89
3868.00,99.89
3867.00,99.91
3866.00,99.92
3865.00,99.91
3864.00,99.90
3863.00,99.90
3862.00,99.90
3861.00,99.89
3860.00,99.89
3859.00,99.87
3858.00,99.81
3857.00,99.72
3856.00,99.66
3855.00,99.68
3854.00,99.74
3853.00,99.77
3852.00,99.80
3851.00,99.82
3850.00,99.83
3849.00,99.83
3848.00,99.84
3847.00,99.85
3846.00,99.87
3845.00,99.87
3844.00,99.89
3843.00,99.90
3842.00,99.91
3841.00,99.93
3840.00,99.97
3839.00,99.99
3838.00,99.97
3837.00,99.94
3836.00,99.91
3835.00,99.90
3834.00,99.90
3833.00,99.90
3832.00,99.90
3831.00,99.88
3830.00,99.87
3829.00,99.86
3828.00,99.86
3827.00,99.86
3826.00,99.86
3825.00,99.88
3824.00,99.91
3823.00,99.94
3822.00,99.95
3821.00,99.93
3820.00,99.91
3819.00,99.91
3818.00,99.93
3817.00,99.92
3816.00,99.88
3815.00,99.84
3814.00,99.85
3813.00,99.88
3812.00,99.89
3811.00,99.89
3810.00,99.89
3809.00,99.90
3808.00,99.91
3807.00,99.90
3806.00,99.88
3805.00,99.88
3804.00,99.89
3803.00,99.90
3802.00,99.89
3801.00,99.86
3800.00,99.84
3799.00,99.84
3798.00,99.85
3797.00,99.85
3796.00,99.85
3795.00,99.86
3794.00,99.86
3793.00,99.86
3792.00,99.85
3791.00,99.85
3790.00,99.85
3789.00,99.86
3788.00,99.85
3787.00,99.84
3786.00,99.84
3785.00,99.85
3784.00,99.86
3783.00,99.86
3782.00,99.86
3781.00,99.85
3780.00,99.85
3779.00,99.85
3778.00,99.86
3777.00,99.88
3776.00,99.89
3775.00,99.88
3774.00,99.88
3773.00,99.87
3772.00,99.87
3771.00,99.87
3770.00,99.87
3769.00,99.87
3768.00,99.88
3767.00,99.88
3766.00,99.87
3765.00,99.87
3764.00,99.87
3763.00,99.87
3762.00,99.87
3761.00,99.87
3760.00,99.87
3759.00,99.88
3758.00,99.88
3757.00,99.88
3756.00,99.87
3755.00,99.86
3754.00,99.85
3753.00,99.82
3752.00,99.77
3751.00,99.71
3750.00,99.67
3749.00,99.66
3748.00,99.68
3747.00,99.69
3746.00,99.70
3745.00,99.69
3744.00,99.69
3743.00,99.73
3742.00,99.80
3741.00,99.82
3740.00,99.80
3739.00,99.79
3738.00,99.81
3737.00,99.84
3736.00,99.86
3735.00,99.88
3734.00,99.89
3733.00,99.89
3732.00,99.86
3731.00,99.85
3730.00,99.85
3729.00,99.86
3728.00,99.86
3727.00,99.86
3726.00,99.85
3725.00,99.85
3724.00,99.85
3723.00,99.85
3722.00,99.85
3721.00,99.85
3720.00,99.85
3719.00,99.86
3718.00,99.88
3717.00,99.89
3716.00,99.89
3715.00,99.89
3714.00,99.89
3713.00,99.88
3712.00,99.87
3711.00,99.86
3710.00,99.86
3709.00,99.87
3708.00,99.87
3707.00,99.87
3706.00,99.86
3705.00,99.86
3704.00,99.86
3703.00,99.87
3702.00,99.88
3701.00,99.88
3700.00,99.88
3699.00,99.88
3698.00,99.87
3697.00,99.86
3696.00,99.86
3695.00,99.87
3694.00,99.88
3693.00,99.89
3692.00,99.90
3691.00,99.92
3690.00,99.93
3689.00,99.92
3688.00,99.87
3687.00,99.85
3686.00,99.84
3685.00,99.85
3684.00,99.86
3683.00,99.86
3682.00,99.86
3681.00,99.87
3680.00,99.88
3679.00,99.89
3678.00,99.92
3677.00,99.96
3676.00,99.95
3675.00,99.92
3674.00,99.92
3673.00,99.94
3672.00,99.96
3671.00,99.95
3670.00,99.91
3669.00,99.88
3668.00,99.87
3667.00,99.87
3666.00,99.87
3665.00,99.86
3664.00,99.86
3663.00,99.87
3662.00,99.87
3661.00,99.88
3660.00,99.88
3659.00,99.89
3658.00,99.90
3657.00,99.91
3656.00,99.90
3655.00,99.90
3654.00,99.91
3653.00,99.94
3652.00,99.97
3651.00,100.01
3650.00,100.02
3649.00,99.99
3648.00,99.93
3647.00,99.88
3646.00,99.86
3645.00,99.86
3644.00,99.86
3643.00,99.85
3642.00,99.85
3641.00,99.85
3640.00,99.86
3639.00,99.86
3638.00,99.86
3637.00,99.86
3636.00,99.86
3635.00,99.86
3634.00,99.86
3633.00,99.86
3632.00,99.86
3631.00,99.88
3630.00,99.91
3629.00,99.90
3628.00,99.87
3627.00,99.85
3626.00,99.85
3625.00,99.84
3624.00,99.85
3623.00,99.87
3622.00,99.90
3621.00,99.93
3620.00,99.94
3619.00,99.92
3618.00,99.90
3617.00,99.88
3616.00,99.86
3615.00,99.86
3614.00,99.86
3613.00,99.86
3612.00,99.85
3611.00,99.84
3610.00,99.83
3609.00,99.82
3608.00,99.83
3607.00,99.85
3606.00,99.86
3605.00,99.86
3604.00,99.85
3603.00,99.84
3602.00,99.83
3601.00,99.82
3600.00,99.82
3599.00,99.83
3598.00,99.84
3597.00,99.84
3596.00,99.85
3595.00,99.85
3594.00,99.86
3593.00,99.85
3592.00,99.85
3591.00,99.84
3590.00,99.83
3589.00,99.83
3588.00,99.84
3587.00,99.85
3586.00,99.86
3585.00,99.86
3584.00,99.86
3583.00,99.86
3582.00,99.86
3581.00,99.85
3580.00,99.85
3579.00,99.84
3578.00,99.84
3577.00,99.83
3576.00,99.83
3575.00,99.84
3574.00,99.85
3573.00,99.86
3572.00,99.87
3571.00,99.87
3570.00,99.87
3569.00,99.86
3568.00,99.85
3567.00,99.85
3566.00,99.85
3565.00,99.85
3564.00,99.84
3563.00,99.84
3562.00,99.83
3561.00,99.84
3560.00,99.84
3559.00,99.85
3558.00,99.85
3557.00,99.85
3556.00,99.84
3555.00,99.84
3554.00,99.83
3553.00,99.83
3552.00,99.84
3551.00,99.84
3550.00,99.85
3549.00,99.85
3548.00,99.84
3547.00,99.84
3546.00,99.84
3545.00,99.84
3544.00,99.84
3543.00,99.85
3542.00,99.85
3541.00,99.85
3540.00,99.85
3539.00,99.85
3538.00,99.85
3537.00,99.85
3536.00,99.85
3535.00,99.86
3534.00,99.86
3533.00,99.86
3532.00,99.85
3531.00,99.84
3530.00,99.84
3529.00,99.83
3528.00,99.84
3527.00,99.84
3526.00,99.84
3525.00,99.84
3524.00,99.84
3523.00,99.84
3522.00,99.85
3521.00,99.85
3520.00,99.85
3519.00,99.85
3518.00,99.84
3517.00,99.84
3516.00,99.84
3515.00,99.84
3514.00,99.84
3513.00,99.84
3512.00,99.83
3511.00,99.84
3510.00,99.84
3509.00,99.84
3508.00,99.85
3507.00,99.85
3506.00,99.84
3505.00,99.83
3504.00,99.83
3503.00,99.83
3502.00,99.83
3501.00,99.84
3500.00,99.84
3499.00,99.84
3498.00,99.83
3497.00,99.83
3496.00,99.83
3495.00,99.84
3494.00,99.84
3493.00,99.85
3492.00,99.85
3491.00,99.85
3490.00,99.85
3489.00,99.85
3488.00,99.85
3487.00,99.85
3486.00,99.84
3485.00,99.84
3484.00,99.84
3483.00,99.83
3482.00,99.84
3481.00,99.84
3480.00,99.84
3479.00,99.84
3478.00,99.84
3477.00,99.84
3476.00,99.84
3475.00,99.84
3474.00,99.84
3473.00,99.84
3472.00,99.84
3471.00,99.84
3470.00,99.83
3469.00,99.83
3468.00,99.83
3467.00,99.83
3466.00,99.84
3465.00,99.84
3464.00,99.84
3463.00,99.83
3462.00,99.83
3461.00,99.84
3460.00,99.84
3459.00,99.84
3458.00,99.84
3457.00,99.84
3456.00,99.84
3455.00,99.84
3454.00,99.84
3453.00,99.83
3452.00,99.83
3451.00,99.83
3450.00,99.82
3449.00,99.82
3448.00,99.81
3447.00,99.82
3446.00,99.82
3445.00,99.83
3444.00,99.83
3443.00,99.83
3442.00,99.83
3441.00,99.83
3440.00,99.83
3439.00,99.83
3438.00,99.84
3437.00,99.84
3436.00,99.84
3435.00,99.84
3434.00,99.84
3433.00,99.84
3432.00,99.84
3431.00,99.84
3430.00,99.84
3429.00,99.84
3428.00,99.83
3427.00,99.83
3426.00,99.83
3425.00,99.83
3424.00,99.83
3423.00,99.83
3422.00,99.83
3421.00,99.83
3420.00,99.83
3419.00,99.83
3418.00,99.83
3417.00,99.83
3416.00,99.82
3415.00,99.82
3414.00,99.82
3413.00,99.82
3412.00,99.82
3411.00,99.82
3410.00,99.82
3409.00,99.82
3408.00,99.82
3407.00,99.83
3406.00,99.83
3405.00,99.82
3404.00,99.82
3403.00,99.82
3402.00,99.81
3401.00,99.81
3400.00,99.81
3399.00,99.81
3398.00,99.81
3397.00,99.82
3396.00,99.82
3395.00,99.82
3394.00,99.82
3393.00,99.82
3392.00,99.82
3391.00,99.82
3390.00,99.82
3389.00,99.82
3388.00,99.82
3387.00,99.82
3386.00,99.82
3385.00,99.82
3384.00,99.81
3383.00,99.81
3382.00,99.82
3381.00,99.82
3380.00,99.82
3379.00,99.82
3378.00,99.82
3377.00,99.82
3376.00,99.81
3375.00,99.81
3374.00,99.81
3373.00,99.81
3372.00,99.82
3371.00,99.82
3370.00,99.82
3369.00,99.82
3368.00,99.82
3367.00,99.81
3366.00,99.81
3365.00,99.81
3364.00,99.82
3363.00,99.82
3362.00,99.82
3361.00,99.82
3360.00,99.81
3359.00,99.81
3358.00,99.81
3357.00,99.81
3356.00,99.81
3355.00,99.81
3354.00,99.82
3353.00,99.82
3352.00,99.82
3351.00,99.81
3350.00,99.81
3349.00,99.81
3348.00,99.81
3347.00,99.81
3346.00,99.81
3345.00,99.81
3344.00,99.80
3343.00,99.80
3342.00,99.80
3341.00,99.80
3340.00,99.81
3339.00,99.80
3338.00,99.81
3337.00,99.81
3336.00,99.81
3335.00,99.81
3334.00,99.81
3333.00,99.80
3332.00,99.80
3331.00,99.80
3330.00,99.80
3329.00,99.79
3328.00,99.79
3327.00,99.80
3326.00,99.80
3325.00,99.81
3324.00,99.81
3323.00,99.81
3322.00,99.81
3321.00,99.81
3320.00,99.80
3319.00,99.80
3318.00,99.80
3317.00,99.80
3316.00,99.80
3315.00,99.80
3314.00,99.80
3313.00,99.80
3312.00,99.80
3311.00,99.80
3310.00,99.80
3309.00,99.80
3308.00,99.79
3307.00,99.79
3306.00,99.80
3305.00,99.81
3304.00,99.81
3303.00,99.81
3302.00,99.81
3301.00,99.80
3300.00,99.80
3299.00,99.80
3298.00,99.80
3297.00,99.80
3296.00,99.80
3295.00,99.79
3294.00,99.79
3293.00,99.79
3292.00,99.79
3291.00,99.79
3290.00,99.80
3289.00,99.80
3288.00,99.80
3287.00,99.81
3286.00,99.81
3285.00,99.80
3284.00,99.80
3283.00,99.79
3282.00,99.79
3281.00,99.79
3280.00,99.79
3279.00,99.80
3278.00,99.80
3277.00,99.80
3276.00,99.79
3275.00,99.79
3274.00,99.78
3273.00,99.78
3272.00,99.78
3271.00,99.79
3270.00,99.79
3269.00,99.80
3268.00,99.80
3267.00,99.80
3266.00,99.80
3265.00,99.80
3264.00,99.80
3263.00,99.80
3262.00,99.80
3261.00,99.80
3260.00,99.80
3259.00,99.80
3258.00,99.79
3257.00,99.79
3256.00,99.79
3255.00,99.79
3254.00,99.79
3253.00,99.79
3252.00,99.80
3251.00,99.80
3250.00,99.81
3249.00,99.81
3248.00,99.81
3247.00,99.81
3246.00,99.80
3245.00,99.80
3244.00,99.80
3243.00,99.81
3242.00,99.81
3241.00,99.81
3240.00,99.81
3239.00,99.81
3238.00,99.80
3237.00,99.81
3236.00,99.81
3235.00,99.81
3234.00,99.80
3233.00,99.80
3232.00,99.79
3231.00,99.79
3230.00,99.79
3229.00,99.80
3228.00,99.80
3227.00,99.81
3226.00,99.82
3225.00,99.82
3224.00,99.81
3223.00,99.81
3222.00,99.80
3221.00,99.80
3220.00,99.80
3219.00,99.80
3218.00,99.80
3217.00,99.80
3216.00,99.80
3215.00,99.80
3214.00,99.80
3213.00,99.81
3212.00,99.81
3211.00,99.81
3210.00,99.80
3209.00,99.80
3208.00,99.81
3207.00,99.81
3206.00,99.82
3205.00,99.82
3204.00,99.82
3203.00,99.82
3202.00,99.81
3201.00,99.81
3200.00,99.80
3199.00,99.80
3198.00,99.80
3197.00,99.80
3196.00,99.81
3195.00,99.81
3194.00,99.81
3193.00,99.81
3192.00,99.81
3191.00,99.81
3190.00,99.82
3189.00,99.82
3188.00,99.82
3187.00,99.82
3186.00,99.81
3185.00,99.81
3184.00,99.81
3183.00,99.81
3182.00,99.81
3181.00,99.81
3180.00,99.81
3179.00,99.81
3178.00,99.81
3177.00,99.81
3176.00,99.81
3175.00,99.81
3174.00,99.81
3173.00,99.81
3172.00,99.81
3171.00,99.81
3170.00,99.81
3169.00,99.81
3168.00,99.81
3167.00,99.81
3166.00,99.81
3165.00,99.81
3164.00,99.81
3163.00,99.82
3162.00,99.82
3161.00,99.82
3160.00,99.82
3159.00,99.82
3158.00,99.82
3157.00,99.82
3156.00,99.82
3155.00,99.82
3154.00,99.81
3153.00,99.81
3152.00,99.81
3151.00,99.81
3150.00,99.81
3149.00,99.81
3148.00,99.81
3147.00,99.81
3146.00,99.81
3145.00,99.81
3144.00,99.81
3143.00,99.82
3142.00,99.81
3141.00,99.81
3140.00,99.81
3139.00,99.81
3138.00,99.81
3137.00,99.81
3136.00,99.81
3135.00,99.81
3134.00,99.81
3133.00,99.82
3132.00,99.82
3131.00,99.83
3130.00,99.83
3129.00,99.82
3128.00,99.81
3127.00,99.81
3126.00,99.81
3125.00,99.81
3124.00,99.82
3123.00,99.82
3122.00,99.82
3121.00,99.82
3120.00,99.82
3119.00,99.82
3118.00,99.82
3117.00,99.82
3116.00,99.82
3115.00,99.82
3114.00,99.82
3113.00,99.82
3112.00,99.82
3111.00,99.81
3110.00,99.81
3109.00,99.81
3108.00,99.81
3107.00,99.81
3106.00,99.81
3105.00,99.81
3104.00,99.81
3103.00,99.82
3102.00,99.82
3101.00,99.82
3100.00,99.82
3099.00,99.82
3098.00,99.82
3097.00,99.81
3096.00,99.80
3095.00,99.80
3094.00,99.81
3093.00,99.81
3092.00,99.81
3091.00,99.82
3090.00,99.82
3089.00,99.81
3088.00,99.81
3087.00,99.81
3086.00,99.81
3085.00,99.82
3084.00,99.82
3083.00,99.82
3082.00,99.81
3081.00,99.81
3080.00,99.82
3079.00,99.82
3078.00,99.83
3077.00,99.83
3076.00,99.82
3075.00,99.82
3074.00,99.82
3073.00,99.82
3072.00,99.82
3071.00,99.82
3070.00,99.81
3069.00,99.81
3068.00,99.81
3067.00,99.81
3066.00,99.81
3065.00,99.82
3064.00,99.82
3063.00,99.82
3062.00,99.82
3061.00,99.82
3060.00,99.82
3059.00,99.82
3058.00,99.82
3057.00,99.82
3056.00,99.82
3055.00,99.82
3054.00,99.82
3053.00,99.83
3052.00,99.83
3051.00,99.83
3050.00,99.83
3049.00,99.83
3048.00,99.83
3047.00,99.83
3046.00,99.83
3045.00,99.83
3044.00,99.83
3043.00,99.83
3042.00,99.83
3041.00,99.83
3040.00,99.83
3039.00,99.83
3038.00,99.83
3037.00,99.83
3036.00,99.82
3035.00,99.82
3034.00,99.81
3033.00,99.80
3032.00,99.80
3031.00,99.81
3030.00,99.82
3029.00,99.82
3028.00,99.82
3027.00,99.82
3026.00,99.82
3025.00,99.81
3024.00,99.81
3023.00,99.81
3022.00,99.82
3021.00,99.82
3020.00,99.83
3019.00,99.83
3018.00,99.82
3017.00,99.82
3016.00,99.82
3015.00,99.82
3014.00,99.82
3013.00,99.83
3012.00,99.83
3011.00,99.83
3010.00,99.83
3009.00,99.82
3008.00,99.82
3007.00,99.82
3006.00,99.82
3005.00,99.82
3004.00,99.82
3003.00,99.82
3002.00,99.82
3001.00,99.82
3000.00,99.82
2999.00,99.82
2998.00,99.82
2997.00,99.82
2996.00,99.82
2995.00,99.82
2994.00,99.82
2993.00,99.82
2992.00,99.82
2991.00,99.82
2990.00,99.81
2989.00,99.81
2988.00,99.81
2987.00,99.81
2986.00,99.81
2985.00,99.81
2984.00,99.81
2983.00,99.81
2982.00,99.81
2981.00,99.81
2980.00,99.81
2979.00,99.81
2978.00,99.81
2977.00,99.81
2976.00,99.80
2975.00,99.81
2974.00,99.81
2973.00,99.81
2972.00,99.81
2971.00,99.81
2970.00,99.81
2969.00,99.81
2968.00,99.81
2967.00,99.81
2966.00,99.81
2965.00,99.80
2964.00,99.80
2963.00,99.81
2962.00,99.81
2961.00,99.82
2960.00,99.82
2959.00,99.82
2958.00,99.82
2957.00,99.81
2956.00,99.81
2955.00,99.80
2954.00,99.80
2953.00,99.81
2952.00,99.81
2951.00,99.81
2950.00,99.80
2949.00,99.80
2948.00,99.80
2947.00,99.81
2946.00,99.81
2945.00,99.81
2944.00,99.81
2943.00,99.81
2942.00,99.81
2941.00,99.80
2940.00,99.80
2939.00,99.80
2938.00,99.81
2937.00,99.81
2936.00,99.81
2935.00,99.81
2934.00,99.81
2933.00,99.81
2932.00,99.82
2931.00,99.82
2930.00,99.83
2929.00,99.84
2928.00,99.85
2927.00,99.86
2926.00,99.87
2925.00,99.89
2924.00,99.92
2923.00,99.95
2922.00,99.97
2921.00,99.99
2920.00,100.01
2919.00,100.04
2918.00,100.06
2917.00,100.06
2916.00,100.05
2915.00,100.02
2914.00,99.99
2913.00,99.95
2912.00,99.92
2911.00,99.89
2910.00,99.88
2909.00,99.86
2908.00,99.85
2907.00,99.84
2906.00,99.83
2905.00,99.83
2904.00,99.83
2903.00,99.83
2902.00,99.83
2901.00,99.83
2900.00,99.83
2899.00,99.83
2898.00,99.82
2897.00,99.82
2896.00,99.82
2895.00,99.81
2894.00,99.81
2893.00,99.81
2892.00,99.81
2891.00,99.81
2890.00,99.82
2889.00,99.81
2888.00,99.81
2887.00,99.81
2886.00,99.82
2885.00,99.82
2884.00,99.82
2883.00,99.83
2882.00,99.83
2881.00,99.83
2880.00,99.82
2879.00,99.82
2878.00,99.81
2877.00,99.81
2876.00,99.81
2875.00,99.80
2874.00,99.80
2873.00,99.80
2872.00,99.80
2871.00,99.81
2870.00,99.81
2869.00,99.81
2868.00,99.81
2867.00,99.81
2866.00,99.81
2865.00,99.81
2864.00,99.81
2863.00,99.81
2862.00,99.81
2861.00,99.81
2860.00,99.82
2859.00,99.82
2858.00,99.83
2857.00,99.84
2856.00,99.85
2855.00,99.87
2854.00,99.89
2853.00,99.91
2852.00,99.94
2851.00,99.97
2850.00,99.98
2849.00,99.98
2848.00,99.96
2847.00,99.93
2846.00,99.90
2845.00,99.87
2844.00,99.85
2843.00,99.84
2842.00,99.83
2841.00,99.82
2840.00,99.82
2839.00,99.82
2838.00,99.82
2837.00,99.82
2836.00,99.82
2835.00,99.82
2834.00,99.82
2833.00,99.82
2832.00,99.81
2831.00,99.81
2830.00,99.81
2829.00,99.81
2828.00,99.81
2827.00,99.82
2826.00,99.81
2825.00,99.81
2824.00,99.81
2823.00,99.81
2822.00,99.81
2821.00,99.81
2820.00,99.81
2819.00,99.81
2818.00,99.81
2817.00,99.81
2816.00,99.81
2815.00,99.81
2814.00,99.81
2813.00,99.81
2812.00,99.81
2811.00,99.82
2810.00,99.82
2809.00,99.82
2808.00,99.82
2807.00,99.82
2806.00,99.81
2805.00,99.81
2804.00,99.81
2803.00,99.81
2802.00,99.81
2801.00,99.81
2800.00,99.81
2799.00,99.81
2798.00,99.82
2797.00,99.82
2796.00,99.82
2795.00,99.82
2794.00,99.82
2793.00,99.82
2792.00,99.82
2791.00,99.82
2790.00,99.82
2789.00,99.82
2788.00,99.82
2787.00,99.82
2786.00,99.82
2785.00,99.82
2784.00,99.82
2783.00,99.82
2782.00,99.81
2781.00,99.81
2780.00,99.81
2779.00,99.81
2778.00,99.81
2777.00,99.82
2776.00,99.82
2775.00,99.82
2774.00,99.82
2773.00,99.82
2772.00,99.82
2771.00,99.82
2770.00,99.83
2769.00,99.83
2768.00,99.83
2767.00,99.82
2766.00,99.82
2765.00,99.81
2764.00,99.81
2763.00,99.81
2762.00,99.81
2761.00,99.81
2760.00,99.81
2759.00,99.81
2758.00,99.81
2757.00,99.82
2756.00,99.82
2755.00,99.82
2754.00,99.82
2753.00,99.82
2752.00,99.82
2751.00,99.82
2750.00,99.82
2749.00,99.82
2748.00,99.82
2747.00,99.82
2746.00,99.82
2745.00,99.82
2744.00,99.82
2743.00,99.82
2742.00,99.82
2741.00,99.82
2740.00,99.83
2739.00,99.83
2738.00,99.83
2737.00,99.82
2736.00,99.82
2735.00,99.82
2734.00,99.81
2733.00,99.81
2732.00,99.81
2731.00,99.82
2730.00,99.82
2729.00,99.82
2728.00,99.82
2727.00,99.82
2726.00,99.82
2725.00,99.82
2724.00,99.82
2723.00,99.82
2722.00,99.82
2721.00,99.82
2720.00,99.82
2719.00,99.82
2718.00,99.81
2717.00,99.81
2716.00,99.81
2715.00,99.82
2714.00,99.82
2713.00,99.82
2712.00,99.82
2711.00,99.82
2710.00,99.82
2709.00,99.82
2708.00,99.82
2707.00,99.83
2706.00,99.83
2705.00,99.83
2704.00,99.82
2703.00,99.82
2702.00,99.82
2701.00,99.82
2700.00,99.82
2699.00,99.82
2698.00,99.82
2697.00,99.82
2696.00,99.82
2695.00,99.82
2694.00,99.82
2693.00,99.82
2692.00,99.82
2691.00,99.82
2690.00,99.82
2689.00,99.82
2688.00,99.82
2687.00,99.82
2686.00,99.82
2685.00,99.82
2684.00,99.82
2683.00,99.82
2682.00,99.82
2681.00,99.82
2680.00,99.81
2679.00,99.81
2678.00,99.81
2677.00,99.82
2676.00,99.82
2675.00,99.82
2674.00,99.82
2673.00,99.82
2672.00,99.82
2671.00,99.82
2670.00,99.83
2669.00,99.83
2668.00,99.83
2667.00,99.83
2666.00,99.82
2665.00,99.82
2664.00,99.82
2663.00,99.82
2662.00,99.82
2661.00,99.82
2660.00,99.82
2659.00,99.82
2658.00,99.83
2657.00,99.83
2656.00,99.83
2655.00,99.83
2654.00,99.83
2653.00,99.83
2652.00,99.82
2651.00,99.82
2650.00,99.82
2649.00,99.82
2648.00,99.82
2647.00,99.83
2646.00,99.83
2645.00,99.83
2644.00,99.83
2643.00,99.83
2642.00,99.83
2641.00,99.82
2640.00,99.82
2639.00,99.82
2638.00,99.82
2637.00,99.82
2636.00,99.82
2635.00,99.82
2634.00,99.82
2633.00,99.82
2632.00,99.82
2631.00,99.82
2630.00,99.82
2629.00,99.82
2628.00,99.83
2627.00,99.83
2626.00,99.83
2625.00,99.83
2624.00,99.83
2623.00,99.83
2622.00,99.83
2621.00,99.83
2620.00,99.82
2619.00,99.82
2618.00,99.82
2617.00,99.82
2616.00,99.82
2615.00,99.82
2614.00,99.82
2613.00,99.83
2612.00,99.83
2611.00,99.83
2610.00,99.83
2609.00,99.83
2608.00,99.83
2607.00,99.83
2606.00,99.83
2605.00,99.83
2604.00,99.83
2603.00,99.82
2602.00,99.82
2601.00,99.82
2600.00,99.82
2599.00,99.82
2598.00,99.83
2597.00,99.83
2596.00,99.83
2595.00,99.83
2594.00,99.82
2593.00,99.82
2592.00,99.82
2591.00,99.82
2590.00,99.82
2589.00,99.82
2588.00,99.83
2587.00,99.82
2586.00,99.82
2585.00,99.82
2584.00,99.82
2583.00,99.83
2582.00,99.83
2581.00,99.83
2580.00,99.83
2579.00,99.83
2578.00,99.83
2577.00,99.84
2576.00,99.84
2575.00,99.84
2574.00,99.83
2573.00,99.83
2572.00,99.82
2571.00,99.82
2570.00,99.82
2569.00,99.82
2568.00,99.82
2567.00,99.82
2566.00,99.82
2565.00,99.82
2564.00,99.82
2563.00,99.82
2562.00,99.82
2561.00,99.82
2560.00,99.82
2559.00,99.83
2558.00,99.83
2557.00,99.83
2556.00,99.83
2555.00,99.83
2554.00,99.83
2553.00,99.83
2552.00,99.83
2551.00,99.83
2550.00,99.83
2549.00,99.82
2548.00,99.82
2547.00,99.82
2546.00,99.83
2545.00,99.83
2544.00,99.83
2543.00,99.83
2542.00,99.83
2541.00,99.83
2540.00,99.83
2539.00,99.83
2538.00,99.83
2537.00,99.84
2536.00,99.84
2535.00,99.84
2534.00,99.83
2533.00,99.83
2532.00,99.83
2531.00,99.82
2530.00,99.82
2529.00,99.82
2528.00,99.82
2527.00,99.83
2526.00,99.83
2525.00,99.83
2524.00,99.83
2523.00,99.82
2522.00,99.82
2521.00,99.82
2520.00,99.82
2519.00,99.82
2518.00,99.83
2517.00,99.83
2516.00,99.83
2515.00,99.83
2514.00,99.83
2513.00,99.83
2512.00,99.83
2511.00,99.83
2510.00,99.83
2509.00,99.82
2508.00,99.82
2507.00,99.82
2506.00,99.82
2505.00,99.82
2504.00,99.82
2503.00,99.82
2502.00,99.82
2501.00,99.82
2500.00,99.82
2499.00,99.82
2498.00,99.82
2497.00,99.82
2496.00,99.82
2495.00,99.83
2494.00,99.83
2493.00,99.83
2492.00,99.83
2491.00,99.83
2490.00,99.82
2489.00,99.82
2488.00,99.82
2487.00,99.83
2486.00,99.83
2485.00,99.83
2484.00,99.83
2483.00,99.83
2482.00,99.83
2481.00,99.83
2480.00,99.83
2479.00,99.83
2478.00,99.83
2477.00,99.82
2476.00,99.83
2475.00,99.83
2474.00,99.83
2473.00,99.84
2472.00,99.84
2471.00,99.83
2470.00,99.83
2469.00,99.83
2468.00,99.83
2467.00,99.83
2466.00,99.83
2465.00,99.83
2464.00,99.83
2463.00,99.83
2462.00,99.83
2461.00,99.83
2460.00,99.83
2459.00,99.83
2458.00,99.83
2457.00,99.83
2456.00,99.83
2455.00,99.83
2454.00,99.84
2453.00,99.84
2452.00,99.84
2451.00,99.84
2450.00,99.84
2449.00,99.84
2448.00,99.84
2447.00,99.83
2446.00,99.83
2445.00,99.83
2444.00,99.83
2443.00,99.83
2442.00,99.84
2441.00,99.84
2440.00,99.84
2439.00,99.84
2438.00,99.83
2437.00,99.83
2436.00,99.83
2435.00,99.84
2434.00,99.84
2433.00,99.84
2432.00,99.84
2431.00,99.84
2430.00,99.84
2429.00,99.84
2428.00,99.84
2427.00,99.84
2426.00,99.84
2425.00,99.84
2424.00,99.84
2423.00,99.84
2422.00,99.83
2421.00,99.83
2420.00,99.83
2419.00,99.84
2418.00,99.84
2417.00,99.84
2416.00,99.84
2415.00,99.84
2414.00,99.84
2413.00,99.83
2412.00,99.83
2411.00,99.83
2410.00,99.83
2409.00,99.83
2408.00,99.84
2407.00,99.84
2406.00,99.84
2405.00,99.84
2404.00,99.84
2403.00,99.84
2402.00,99.84
2401.00,99.84
2400.00,99.83
2399.00,99.83
2398.00,99.84
2397.00,99.84
2396.00,99.84
2395.00,99.84
2394.00,99.84
2393.00,99.84
2392.00,99.83
2391.00,99.83
2390.00,99.83
2389.00,99.83
2388.00,99.83
2387.00,99.83
2386.00,99.83
2385.00,99.83
2384.00,99.83
2383.00,99.83
2382.00,99.83
2381.00,99.83
2380.00,99.82
2379.00,99.82
2378.00,99.82
2377.00,99.83
2376.00,99.83
2375.00,99.82
2374.00,99.82
2373.00,99.82
2372.00,99.82
2371.00,99.82
2370.00,99.82
2369.00,99.82
2368.00,99.82
2367.00,99.82
2366.00,99.81
2365.00,99.81
2364.00,99.81
2363.00,99.82
2362.00,99.82
2361.00,99.82
2360.00,99.82
2359.00,99.81
2358.00,99.80
2357.00,99.80
2356.00,99.80
2355.00,99.81
2354.00,99.81
2353.00,99.81
2352.00,99.81
2351.00,99.81
2350.00,99.80
2349.00,99.80
2348.00,99.79
2347.00,99.78
2346.00,99.78
2345.00,99.78
2344.00,99.78
2343.00,99.78
2342.00,99.78
2341.00,99.79
2340.00,99.80
2339.00,99.80
2338.00,99.80
2337.00,99.80
2336.00,99.79
2335.00,99.79
2334.00,99.78
2333.00,99.78
2332.00,99.78
2331.00,99.78
2330.00,99.79
2329.00,99.79
2328.00,99.79
2327.00,99.80
2326.00,99.79
2325.00,99.79
2324.00,99.80
2323.00,99.80
2322.00,99.81
2321.00,99.81
2320.00,99.81
2319.00,99.81
2318.00,99.82
2317.00,99.82
2316.00,99.82
2315.00,99.82
2314.00,99.82
2313.00,99.82
2312.00,99.82
2311.00,99.82
2310.00,99.82
2309.00,99.82
2308.00,99.82
2307.00,99.83
2306.00,99.83
2305.00,99.83
2304.00,99.83
2303.00,99.83
2302.00,99.82
2301.00,99.83
2300.00,99.83
2299.00,99.84
2298.00,99.84
2297.00,99.84
2296.00,99.83
2295.00,99.83
2294.00,99.83
2293.00,99.84
2292.00,99.84
2291.00,99.84
2290.00,99.84
2289.00,99.84
2288.00,99.85
2287.00,99.85
2286.00,99.85
2285.00,99.85
2284.00,99.85
2283.00,99.85
2282.00,99.84
2281.00,99.84
2280.00,99.85
2279.00,99.84
2278.00,99.84
2277.00,99.84
2276.00,99.84
2275.00,99.84
2274.00,99.84
2273.00,99.84
2272.00,99.84
2271.00,99.84
2270.00,99.84
2269.00,99.84
2268.00,99.84
2267.00,99.84
2266.00,99.84
2265.00,99.84
2264.00,99.84
2263.00,99.84
2262.00,99.84
2261.00,99.84
2260.00,99.84
2259.00,99.84
2258.00,99.84
2257.00,99.84
2256.00,99.84
2255.00,99.85
2254.00,99.85
2253.00,99.84
2252.00,99.84
2251.00,99.84
2250.00,99.84
2249.00,99.84
2248.00,99.85
2247.00,99.85
2246.00,99.85
2245.00,99.85
2244.00,99.85
2243.00,99.85
2242.00,99.85
2241.00,99.85
2240.00,99.84
2239.00,99.84
2238.00,99.84
2237.00,99.84
2236.00,99.85
2235.00,99.85
2234.00,99.85
2233.00,99.85
2232.00,99.85
2231.00,99.85
2230.00,99.85
2229.00,99.85
2228.00,99.85
2227.00,99.85
2226.00,99.84
2225.00,99.84
2224.00,99.85
2223.00,99.85
2222.00,99.86
2221.00,99.86
2220.00,99.85
2219.00,99.85
2218.00,99.85
2217.00,99.85
2216.00,99.86
2215.00,99.86
2214.00,99.86
2213.00,99.85
2212.00,99.85
2211.00,99.84
2210.00,99.84
2209.00,99.84
2208.00,99.84
2207.00,99.85
2206.00,99.85
2205.00,99.85
2204.00,99.86
2203.00,99.86
2202.00,99.86
2201.00,99.86
2200.00,99.86
2199.00,99.86
2198.00,99.86
2197.00,99.85
2196.00,99.85
2195.00,99.85
2194.00,99.85
2193.00,99.86
2192.00,99.86
2191.00,99.86
2190.00,99.86
2189.00,99.86
2188.00,99.86
2187.00,99.86
2186.00,99.86
2185.00,99.86
2184.00,99.86
2183.00,99.86
2182.00,99.86
2181.00,99.86
2180.00,99.86
2179.00,99.86
2178.00,99.86
2177.00,99.86
2176.00,99.86
2175.00,99.86
2174.00,99.86
2173.00,99.86
2172.00,99.86
2171.00,99.86
2170.00,99.86
2169.00,99.86
2168.00,99.85
2167.00,99.85
2166.00,99.85
2165.00,99.86
2164.00,99.86
2163.00,99.86
2162.00,99.86
2161.00,99.86
2160.00,99.86
2159.00,99.86
2158.00,99.85
2157.00,99.85
2156.00,99.85
2155.00,99.85
2154.00,99.85
2153.00,99.85
2152.00,99.85
2151.00,99.86
2150.00,99.86
2149.00,99.86
2148.00,99.86
2147.00,99.86
2146.00,99.85
2145.00,99.85
2144.00,99.85
2143.00,99.86
2142.00,99.86
2141.00,99.86
2140.00,99.86
2139.00,99.86
2138.00,99.86
2137.00,99.86
2136.00,99.86
2135.00,99.86
2134.00,99.86
2133.00,99.86
2132.00,99.86
2131.00,99.86
2130.00,99.86
2129.00,99.86
2128.00,99.86
2127.00,99.87
2126.00,99.86
2125.00,99.86
2124.00,99.86
2123.00,99.86
2122.00,99.85
2121.00,99.85
2120.00,99.85
2119.00,99.86
2118.00,99.85
2117.00,99.85
2116.00,99.86
2115.00,99.86
2114.00,99.86
2113.00,99.86
2112.00,99.86
2111.00,99.86
2110.00,99.86
2109.00,99.85
2108.00,99.85
2107.00,99.86
2106.00,99.86
2105.00,99.86
2104.00,99.86
2103.00,99.86
2102.00,99.86
2101.00,99.86
2100.00,99.86
2099.00,99.86
2098.00,99.86
2097.00,99.86
2096.00,99.87
2095.00,99.87
2094.00,99.87
2093.00,99.87
2092.00,99.87
2091.00,99.87
2090.00,99.87
2089.00,99.87
2088.00,99.87
2087.00,99.87
2086.00,99.87
2085.00,99.86
2084.00,99.86
2083.00,99.86
2082.00,99.86
2081.00,99.86
2080.00,99.86
2079.00,99.86
2078.00,99.86
2077.00,99.86
2076.00,99.86
2075.00,99.86
2074.00,99.86
2073.00,99.86
2072.00,99.86
2071.00,99.87
2070.00,99.87
2069.00,99.87
2068.00,99.87
2067.00,99.87
2066.00,99.86
2065.00,99.86
2064.00,99.87
2063.00,99.87
2062.00,99.87
2061.00,99.87
2060.00,99.87
2059.00,99.87
2058.00,99.87
2057.00,99.87
2056.00,99.87
2055.00,99.86
2054.00,99.86
2053.00,99.86
2052.00,99.86
2051.00,99.87
2050.00,99.87
2049.00,99.87
2048.00,99.87
2047.00,99.87
2046.00,99.87
2045.00,99.86
2044.00,99.86
2043.00,99.86
2042.00,99.85
2041.00,99.86
2040.00,99.86
2039.00,99.87
2038.00,99.87
2037.00,99.87
2036.00,99.86
2035.00,99.86
2034.00,99.86
2033.00,99.86
2032.00,99.86
2031.00,99.87
2030.00,99.87
2029.00,99.87
2028.00,99.87
2027.00,99.87
2026.00,99.87
2025.00,99.87
2024.00,99.87
2023.00,99.87
2022.00,99.87
2021.00,99.86
2020.00,99.86
2019.00,99.86
2018.00,99.86
2017.00,99.87
2016.00,99.87
2015.00,99.87
2014.00,99.86
2013.00,99.86
2012.00,99.87
2011.00,99.87
2010.00,99.87
2009.00,99.86
2008.00,99.86
2007.00,99.86
2006.00,99.86
2005.00,99.87
2004.00,99.87
2003.00,99.87
2002.00,99.87
2001.00,99.87
2000.00,99.87
1999.00,99.87
1998.00,99.87
1997.00,99.87
1996.00,99.87
1995.00,99.87
1994.00,99.87
1993.00,99.87
1992.00,99.87
1991.00,99.87
1990.00,99.87
1989.00,99.87
1988.00,99.87
1987.00,99.88
1986.00,99.88
1985.00,99.87
1984.00,99.87
1983.00,99.87
1982.00,99.87
1981.00,99.87
1980.00,99.87
1979.00,99.88
1978.00,99.88
1977.00,99.88
1976.00,99.88
1975.00,99.88
1974.00,99.88
1973.00,99.87
1972.00,99.87
1971.00,99.87
1970.00,99.87
1969.00,99.86
1968.00,99.86
1967.00,99.86
1966.00,99.87
1965.00,99.87
1964.00,99.87
1963.00,99.88
1962.00,99.88
1961.00,99.87
1960.00,99.87
1959.00,99.87
1958.00,99.87
1957.00,99.87
1956.00,99.87
1955.00,99.87
1954.00,99.87
1953.00,99.88
1952.00,99.88
1951.00,99.88
1950.00,99.88
1949.00,99.87
1948.00,99.87
1947.00,99.86
1946.00,99.86
1945.00,99.87
1944.00,99.87
1943.00,99.87
1942.00,99.88
1941.00,99.88
1940.00,99.88
1939.00,99.88
1938.00,99.88
1937.00,99.88
1936.00,99.87
1935.00,99.87
1934.00,99.87
1933.00,99.87
1932.00,99.88
1931.00,99.88
1930.00,99.88
1929.00,99.88
1928.00,99.88
1927.00,99.88
1926.00,99.87
1925.00,99.87
1924.00,99.86
1923.00,99.86
1922.00,99.86
1921.00,99.87
1920.00,99.87
1919.00,99.88
1918.00,99.88
1917.00,99.88
1916.00,99.88
1915.00,99.88
1914.00,99.87
1913.00,99.87
1912.00,99.86
1911.00,99.86
1910.00,99.85
1909.00,99.86
1908.00,99.87
1907.00,99.87
1906.00,99.87
1905.00,99.88
1904.00,99.88
1903.00,99.87
1902.00,99.87
1901.00,99.87
1900.00,99.88
1899.00,99.88
1898.00,99.88
1897.00,99.88
1896.00,99.87
1895.00,99.87
1894.00,99.87
1893.00,99.87
1892.00,99.88
1891.00,99.88
1890.00,99.87
1889.00,99.87
1888.00,99.88
1887.00,99.87
1886.00,99.86
1885.00,99.87
1884.00,99.87
1883.00,99.87
1882.00,99.87
1881.00,99.87
1880.00,99.87
1879.00,99.87
1878.00,99.87
1877.00,99.87
1876.00,99.87
1875.00,99.88
1874.00,99.87
1873.00,99.88
1872.00,99.89
1871.00,99.89
1870.00,99.89
1869.00,99.87
1868.00,99.87
1867.00,99.86
1866.00,99.86
1865.00,99.87
1864.00,99.88
1863.00,99.88
1862.00,99.88
1861.00,99.88
1860.00,99.88
1859.00,99.88
1858.00,99.87
1857.00,99.87
1856.00,99.88
1855.00,99.88
1854.00,99.88
1853.00,99.88
1852.00,99.88
1851.00,99.88
1850.00,99.88
1849.00,99.88
1848.00,99.88
1847.00,99.87
1846.00,99.85
1845.00,99.85
1844.00,99.85
1843.00,99.86
1842.00,99.87
1841.00,99.88
1840.00,99.87
1839.00,99.86
1838.00,99.86
1837.00,99.86
1836.00,99.87
1835.00,99.88
1834.00,99.89
1833.00,99.89
1832.00,99.88
1831.00,99.88
1830.00,99.87
1829.00,99.88
1828.00,99.89
1827.00,99.89
1826.00,99.89
1825.00,99.89
1824.00,99.89
1823.00,99.89
1822.00,99.88
1821.00,99.88
1820.00,99.89
1819.00,99.89
1818.00,99.88
1817.00,99.88
1816.00,99.88
1815.00,99.88
1814.00,99.87
1813.00,99.86
1812.00,99.85
1811.00,99.86
1810.00,99.86
1809.00,99.87
1808.00,99.88
1807.00,99.88
1806.00,99.87
1805.00,99.87
1804.00,99.89
1803.00,99.89
1802.00,99.89
1801.00,99.87
1800.00,99.87
1799.00,99.86
1798.00,99.85
1797.00,99.86
1796.00,99.86
1795.00,99.86
1794.00,99.86
1793.00,99.87
1792.00,99.89
1791.00,99.90
1790.00,99.89
1789.00,99.88
1788.00,99.88
1787.00,99.88
1786.00,99.88
1785.00,99.89
1784.00,99.89
1783.00,99.87
1782.00,99.85
1781.00,99.84
1780.00,99.84
1779.00,99.85
1778.00,99.86
1777.00,99.86
1776.00,99.85
1775.00,99.85
1774.00,99.85
1773.00,99.85
1772.00,99.85
1771.00,99.87
1770.00,99.89
1769.00,99.90
1768.00,99.90
1767.00,99.89
1766.00,99.88
1765.00,99.87
1764.00,99.87
1763.00,99.89
1762.00,99.90
1761.00,99.89
1760.00,99.89
1759.00,99.88
1758.00,99.88
1757.00,99.87
1756.00,99.86
1755.00,99.85
1754.00,99.83
1753.00,99.81
1752.00,99.80
1751.00,99.80
1750.00,99.78
1749.00,99.76
1748.00,99.75
1747.00,99.76
1746.00,99.78
1745.00,99.78
1744.00,99.79
1743.00,99.81
1742.00,99.82
1741.00,99.82
1740.00,99.83
1739.00,99.84
1738.00,99.83
1737.00,99.79
1736.00,99.76
1735.00,99.77
1734.00,99.79
1733.00,99.78
1732.00,99.79
1731.00,99.81
1730.00,99.82
1729.00,99.83
1728.00,99.85
1727.00,99.85
1726.00,99.85
1725.00,99.84
1724.00,99.84
1723.00,99.85
1722.00,99.84
1721.00,99.84
1720.00,99.86
1719.00,99.88
1718.00,99.89
1717.00,99.90
1716.00,99.91
1715.00,99.89
1714.00,99.87
1713.00,99.86
1712.00,99.87
1711.00,99.86
1710.00,99.84
1709.00,99.84
1708.00,99.85
1707.00,99.85
1706.00,99.85
1705.00,99.88
1704.00,99.89
1703.00,99.84
1702.00,99.80
1701.00,99.82
1700.00,99.84
1699.00,99.83
1698.00,99.84
1697.00,99.84
1696.00,99.85
1695.00,99.84
1694.00,99.85
1693.00,99.87
1692.00,99.87
1691.00,99.86
1690.00,99.86
1689.00,99.87
1688.00,99.88
1687.00,99.89
1686.00,99.93
1685.00,99.98
1684.00,99.97
1683.00,99.93
1682.00,99.91
1681.00,99.89
1680.00,99.88
1679.00,99.88
1678.00,99.88
1677.00,99.87
1676.00,99.86
1675.00,99.87
1674.00,99.88
1673.00,99.87
1672.00,99.84
1671.00,99.81
1670.00,99.81
1669.00,99.82
1668.00,99.85
1667.00,99.87
1666.00,99.89
1665.00,99.89
1664.00,99.88
1663.00,99.87
1662.00,99.88
1661.00,99.89
1660.00,99.89
1659.00,99.90
1658.00,99.91
1657.00,99.91
1656.00,99.86
1655.00,99.85
1654.00,99.89
1653.00,99.85
1652.00,99.78
1651.00,99.80
1650.00,99.86
1649.00,99.87
1648.00,99.86
1647.00,99.86
1646.00,99.87
1645.00,99.87
1644.00,99.87
1643.00,99.87
1642.00,99.87
1641.00,99.87
1640.00,99.86
1639.00,99.85
1638.00,99.83
1637.00,99.83
1636.00,99.84
1635.00,99.85
1634.00,99.87
1633.00,99.89
1632.00,99.89
1631.00,99.88
1630.00,99.86
1629.00,99.85
1628.00,99.85
1627.00,99.86
1626.00,99.87
1625.00,99.86
1624.00,99.85
1623.00,99.84
1622.00,99.87
1621.00,99.89
1620.00,99.89
1619.00,99.85
1618.00,99.83
1617.00,99.83
1616.00,99.83
1615.00,99.85
1614.00,99.89
1613.00,99.90
1612.00,99.88
1611.00,99.86
1610.00,99.85
1609.00,99.84
1608.00,99.84
1607.00,99.84
1606.00,99.86
1605.00,99.87
1604.00,99.86
1603.00,99.86
1602.00,99.87
1601.00,99.89
1600.00,99.89
1599.00,99.89
1598.00,99.90
1597.00,99.89
1596.00,99.88
1595.00,99.88
1594.00,99.89
1593.00,99.89
1592.00,99.89
1591.00,99.88
1590.00,99.89
1589.00,99.90
1588.00,99.90
1587.00,99.91
1586.00,99.91
1585.00,99.92
1584.00,99.92
1583.00,99.91
1582.00,99.93
1581.00,99.94
1580.00,99.94
1579.00,99.91
1578.00,99.89
1577.00,99.87
1576.00,99.87
1575.00,99.88
1574.00,99.92
1573.00,99.95
1572.00,99.93
1571.00,99.90
1570.00,99.90
1569.00,99.90
1568.00,99.90
1567.00,99.89
1566.00,99.88
1565.00,99.88
1564.00,99.88
1563.00,99.89
1562.00,99.91
1561.00,99.99
1560.00,100.07
1559.00,100.03
1558.00,99.93
1557.00,99.88
1556.00,99.88
1555.00,99.91
1554.00,99.92
1553.00,99.91
1552.00,99.91
1551.00,99.90
1550.00,99.91
1549.00,99.92
1548.00,99.92
1547.00,99.94
1546.00,99.95
1545.00,99.94
1544.00,99.90
1543.00,99.88
1542.00,99.91
1541.00,99.97
1540.00,99.99
1539.00,99.95
1538.00,99.91
1537.00,99.92
1536.00,99.94
1535.00,99.93
1534.00,99.92
1533.00,99.92
1532.00,99.92
1531.00,99.91
1530.00,99.89
1529.00,99.89
1528.00,99.91
1527.00,99.92
1526.00,99.93
1525.00,99.91
1524.00,99.87
1523.00,99.82
1522.00,99.80
1521.00,99.81
1520.00,99.85
1519.00,99.89
1518.00,99.90
1517.00,99.91
1516.00,99.92
1515.00,99.93
1514.00,99.93
1513.00,99.93
1512.00,99.94
1511.00,99.95
1510.00,99.93
1509.00,99.91
1508.00,99.92
1507.00,99.96
1506.00,99.95
1505.00,99.88
1504.00,99.87
1503.00,99.89
1502.00,99.90
1501.00,99.89
1500.00,99.88
1499.00,99.89
1498.00,99.90
1497.00,99.90
1496.00,99.91
1495.00,99.91
1494.00,99.91
1493.00,99.91
1492.00,99.93
1491.00,99.94
1490.00,99.93
1489.00,99.92
1488.00,99.93
1487.00,99.92
1486.00,99.91
1485.00,99.92
1484.00,99.92
1483.00,99.91
1482.00,99.90
1481.00,99.91
1480.00,99.92
1479.00,99.93
1478.00,99.94
1477.00,99.96
1476.00,99.98
1475.00,99.99
1474.00,100.00
1473.00,100.00
1472.00,99.99
1471.00,99.97
1470.00,99.96
1469.00,99.95
1468.00,99.95
1467.00,99.94
1466.00,99.93
1465.00,99.93
1464.00,99.93
1463.00,99.93
1462.00,99.93
1461.00,99.91
1460.00,99.88
1459.00,99.85
1458.00,99.84
1457.00,99.83
1456.00,99.82
1455.00,99.84
1454.00,99.89
1453.00,99.90
1452.00,99.90
1451.00,99.91
1450.00,99.91
1449.00,99.91
1448.00,99.91
1447.00,99.92
1446.00,99.92
1445.00,99.90
1444.00,99.89
1443.00,99.90
1442.00,99.90
1441.00,99.89
1440.00,99.88
1439.00,99.86
1438.00,99.86
1437.00,99.85
1436.00,99.85
1435.00,99.86
1434.00,99.88
1433.00,99.87
1432.00,99.87
1431.00,99.87
1430.00,99.88
1429.00,99.87
1428.00,99.87
1427.00,99.87
1426.00,99.86
1425.00,99.83
1424.00,99.83
1423.00,99.84
1422.00,99.84
1421.00,99.83
1420.00,99.83
1419.00,99.84
1418.00,99.86
1417.00,99.87
1416.00,99.87
1415.00,99.88
1414.00,99.88
1413.00,99.87
1412.00,99.87
1411.00,99.88
1410.00,99.89
1409.00,99.88
1408.00,99.88
1407.00,99.88
1406.00,99.89
1405.00,99.88
1404.00,99.87
1403.00,99.88
1402.00,99.88
1401.00,99.87
1400.00,99.87
1399.00,99.88
1398.00,99.88
1397.00,99.88
1396.00,99.88
1395.00,99.89
1394.00,99.90
1393.00,99.88
1392.00,99.86
1391.00,99.85
1390.00,99.85
1389.00,99.85
1388.00,99.84
1387.00,99.84
1386.00,99.83
1385.00,99.83
1384.00,99.82
1383.00,99.82
1382.00,99.82
1381.00,99.82
1380.00,99.82
1379.00,99.82
1378.00,99.82
1377.00,99.81
1376.00,99.80
1375.00,99.80
1374.00,99.81
1373.00,99.81
1372.00,99.81
1371.00,99.80
1370.00,99.79
1369.00,99.79
1368.00,99.80
1367.00,99.80
1366.00,99.81
1365.00,99.82
1364.00,99.83
1363.00,99.84
1362.00,99.85
1361.00,99.85
1360.00,99.84
1359.00,99.82
1358.00,99.82
1357.00,99.82
1356.00,99.82
1355.00,99.82
1354.00,99.82
1353.00,99.82
1352.00,99.82
1351.00,99.82
1350.00,99.82
1349.00,99.82
1348.00,99.82
1347.00,99.82
1346.00,99.82
1345.00,99.82
1344.00,99.82
1343.00,99.82
1342.00,99.83
1341.00,99.83
1340.00,99.83
1339.00,99.83
1338.00,99.83
1337.00,99.84
1336.00,99.83
1335.00,99.82
1334.00,99.81
1333.00,99.80
1332.00,99.80
1331.00,99.80
1330.00,99.80
1329.00,99.81
1328.00,99.81
1327.00,99.81
1326.00,99.82
1325.00,99.82
1324.00,99.82
1323.00,99.82
1322.00,99.81
1321.00,99.80
1320.00,99.79
1319.00,99.80
1318.00,99.81
1317.00,99.81
1316.00,99.81
1315.00,99.81
1314.00,99.81
1313.00,99.82
1312.00,99.82
1311.00,99.82
1310.00,99.82
1309.00,99.82
1308.00,99.81
1307.00,99.82
1306.00,99.82
1305.00,99.82
1304.00,99.83
1303.00,99.83
1302.00,99.84
1301.00,99.84
1300.00,99.84
1299.00,99.84
1298.00,99.84
1297.00,99.84
1296.00,99.84
1295.00,99.83
1294.00,99.83
1293.00,99.82
1292.00,99.82
1291.00,99.82
1290.00,99.83
1289.00,99.83
1288.00,99.83
1287.00,99.83
1286.00,99.84
1285.00,99.84
1284.00,99.84
1283.00,99.84
1282.00,99.84
1281.00,99.83
1280.00,99.82
1279.00,99.82
1278.00,99.82
1277.00,99.82
1276.00,99.83
1275.00,99.83
1274.00,99.83
1273.00,99.82
1272.00,99.82
1271.00,99.82
1270.00,99.83
1269.00,99.83
1268.00,99.82
1267.00,99.81
1266.00,99.81
1265.00,99.81
1264.00,99.81
1263.00,99.81
1262.00,99.80
1261.00,99.80
1260.00,99.79
1259.00,99.79
1258.00,99.80
1257.00,99.80
1256.00,99.80
1255.00,99.81
1254.00,99.81
1253.00,99.81
1252.00,99.81
1251.00,99.82
1250.00,99.82
1249.00,99.83
1248.00,99.83
1247.00,99.84
1246.00,99.84
1245.00,99.83
1244.00,99.82
1243.00,99.81
1242.00,99.81
1241.00,99.82
1240.00,99.82
1239.00,99.83
1238.00,99.83
1237.00,99.83
1236.00,99.82
1235.00,99.82
1234.00,99.82
1233.00,99.82
1232.00,99.82
1231.00,99.83
1230.00,99.83
1229.00,99.83
1228.00,99.83
1227.00,99.84
1226.00,99.84
1225.00,99.84
1224.00,99.84
1223.00,99.84
1222.00,99.84
1221.00,99.84
1220.00,99.84
1219.00,99.84
1218.00,99.83
1217.00,99.83
1216.00,99.82
1215.00,99.82
1214.00,99.83
1213.00,99.83
1212.00,99.83
1211.00,99.84
1210.00,99.85
1209.00,99.86
1208.00,99.86
1207.00,99.86
1206.00,99.86
1205.00,99.86
1204.00,99.85
1203.00,99.85
1202.00,99.84
1201.00,99.84
1200.00,99.85
1199.00,99.86
1198.00,99.86
1197.00,99.86
1196.00,99.86
1195.00,99.87
1194.00,99.88
1193.00,99.88
1192.00,99.89
1191.00,99.88
1190.00,99.87
1189.00,99.87
1188.00,99.86
1187.00,99.87
1186.00,99.87
1185.00,99.88
1184.00,99.88
1183.00,99.88
1182.00,99.88
1181.00,99.87
1180.00,99.87
1179.00,99.87
1178.00,99.88
1177.00,99.87
1176.00,99.86
1175.00,99.86
1174.00,99.86
1173.00,99.86
1172.00,99.86
1171.00,99.86
1170.00,99.85
1169.00,99.85
1168.00,99.84
1167.00,99.83
1166.00,99.82
1165.00,99.81
1164.00,99.81
1163.00,99.81
1162.00,99.81
1161.00,99.81
1160.00,99.82
1159.00,99.82
1158.00,99.83
1157.00,99.83
1156.00,99.83
1155.00,99.82
1154.00,99.83
1153.00,99.83
1152.00,99.83
1151.00,99.83
1150.00,99.83
1149.00,99.84
1148.00,99.84
1147.00,99.85
1146.00,99.86
1145.00,99.86
1144.00,99.86
1143.00,99.85
1142.00,99.84
1141.00,99.84
1140.00,99.84
1139.00,99.85
1138.00,99.85
1137.00,99.85
1136.00,99.84
1135.00,99.85
1134.00,99.86
1133.00,99.88
1132.00,99.88
1131.00,99.88
1130.00,99.88
1129.00,99.88
1128.00,99.88
1127.00,99.89
1126.00,99.89
1125.00,99.89
1124.00,99.88
1123.00,99.87
1122.00,99.88
1121.00,99.88
1120.00,99.87
1119.00,99.86
1118.00,99.85
1117.00,99.83
1116.00,99.82
1115.00,99.82
1114.00,99.83
1113.00,99.84
1112.00,99.84
1111.00,99.85
1110.00,99.86
1109.00,99.86
1108.00,99.84
1107.00,99.83
1106.00,99.82
1105.00,99.82
1104.00,99.82
1103.00,99.82
1102.00,99.83
1101.00,99.83
1100.00,99.82
1099.00,99.82
1098.00,99.82
1097.00,99.82
1096.00,99.82
1095.00,99.82
1094.00,99.84
1093.00,99.86
1092.00,99.86
1091.00,99.86
1090.00,99.86
1089.00,99.86
1088.00,99.88
1087.00,99.89
1086.00,99.91
1085.00,99.91
1084.00,99.91
1083.00,99.90
1082.00,99.89
1081.00,99.88
1080.00,99.87
1079.00,99.86
1078.00,99.85
1077.00,99.84
1076.00,99.84
1075.00,99.85
1074.00,99.88
1073.00,99.89
1072.00,99.91
1071.00,99.93
1070.00,99.94
1069.00,99.93
1068.00,99.93
1067.00,99.94
1066.00,99.94
1065.00,99.93
1064.00,99.89
1063.00,99.86
1062.00,99.83
1061.00,99.81
1060.00,99.79
1059.00,99.79
1058.00,99.80
1057.00,99.81
1056.00,99.82
1055.00,99.85
1054.00,99.88
1053.00,99.89
1052.00,99.88
1051.00,99.87
1050.00,99.87
1049.00,99.87
1048.00,99.87
1047.00,99.87
1046.00,99.87
1045.00,99.87
1044.00,99.87
1043.00,99.88
1042.00,99.88
1041.00,99.87
1040.00,99.86
1039.00,99.88
1038.00,99.92
1037.00,99.96
1036.00,99.97
1035.00,99.95
1034.00,99.90
1033.00,99.84
1032.00,99.78
1031.00,99.75
1030.00,99.75
1029.00,99.76
1028.00,99.77
1027.00,99.79
1026.00,99.85
1025.00,99.91
1024.00,99.96
1023.00,99.99
1022.00,99.99
1021.00,99.98
1020.00,99.98
1019.00,99.99
1018.00,100.00
1017.00,99.98
1016.00,99.94
1015.00,99.91
1014.00,99.88
1013.00,99.85
1012.00,99.84
1011.00,99.86
1010.00,99.89
1009.00,99.91
1008.00,99.93
1007.00,99.95
1006.00,99.96
1005.00,99.96
1004.00,99.97
1003.00,99.97
1002.00,99.97
1001.00,99.96
1000.00,99.94
999.00,99.89
998.00,99.82
997.00,99.77
996.00,99.75
995.00,99.79
994.00,99.85
993.00,99.93
992.00,99.99
991.00,100.02
990.00,100.00
989.00,99.94
988.00,99.87
987.00,99.83
986.00,99.82
985.00,99.85
984.00,99.94
983.00,100.06
982.00,100.15
981.00,100.13
980.00,100.04
979.00,99.96
978.00,99.90
977.00,99.85
976.00,99.83
975.00,99.87
974.00,99.94
973.00,100.01
972.00,100.04
971.00,100.03
970.00,99.95
969.00,99.86
968.00,99.80
967.00,99.82
966.00,99.89
965.00,99.96
964.00,100.03
963.00,100.09
962.00,100.07
961.00,99.99
960.00,99.91
959.00,99.93
958.00,100.01
957.00,100.09
956.00,100.14
955.00,100.16
954.00,100.15
953.00,100.11
952.00,100.13
951.00,100.21
950.00,100.24
949.00,100.15
948.00,100.05
947.00,100.07
946.00,100.19
945.00,100.29
944.00,100.34
943.00,100.37
942.00,100.35
941.00,100.25
940.00,100.18
939.00,100.31
938.00,100.59
937.00,100.83
936.00,100.89
935.00,100.78
934.00,100.50
933.00,100.14
932.00,99.89
931.00,99.89
930.00,100.01
929.00,100.10
928.00,100.30
927.00,100.73
926.00,101.12
925.00,101.05
924.00,100.64
923.00,100.48
922.00,100.84
921.00,101.33
920.00,101.43
919.00,101.05
918.00,100.44
917.00,99.96
916.00,99.93
915.00,100.41
914.00,101.01
913.00,101.13
912.00,100.54
911.00,99.70
910.00,99.17
909.00,98.87
908.00,98.51
907.00,98.10
906.00,97.80
905.00,97.95
904.00,98.84
903.00,100.11
902.00,100.89
901.00,100.92
900.00,100.62
899.00,100.03
898.00,99.17
897.00,98.29
896.00,98.15
895.00,99.06
894.00,99.91
893.00,99.26
892.00,97.14
891.00,96.03
890.00,97.03
889.00,99.04
888.00,100.81
887.00,100.63
886.00,99.76
885.00,100.29
884.00,102.78
883.00,104.39
882.00,101.19
881.00,93.20
880.00,84.32
879.00,80.79
878.00,83.40
877.00,91.04
876.00,102.40
875.00,108.64
874.00,110.90
873.00,110.07
872.00,105.29
871.00,102.89
870.00,97.38
869.00,92.22
868.00,99.68
867.00,110.01
866.00,119.33
865.00,135.93
864.00,128.14
863.00,92.12
862.00,82.13
861.00,110.82
860.00,171.48
859.00,168.53
858.00,165.14
857.00,158.33
856.00,121.56
855.00,165.65
854.00,138.26
853.00,69.95
852.00,86.08
851.00,46.05
850.00,76.54
849.00,187.80
848.00,443.88
847.00,532.24
846.00,355.92
845.00,224.11
844.00,102.27
843.00,117.89
842.00,135.99
841.00,150.46
840.00,142.65
839.00,177.33
838.00,487.63
837.00,286.91
836.00,240.51
835.00,311.46
834.00,246.42
833.00,193.50
832.00,180.11
831.00,98.48
830.00,452.51
829.00,1738.72
828.00,605.28
827.00,948.57
826.00,977.09
825.00,463.67
824.00,246.88
823.00,254.35
822.00,386.27
821.00,215.19
820.00,152.32
819.00,200.54
818.00,363.91
817.00,243.31
816.00,144.32
815.00,166.71
814.00,165.64
813.00,227.80
812.00,174.36
811.00,401.00
810.00,1255.53
809.00,341.84
808.00,107.03
807.00,159.76
806.00,179.73
805.00,199.84
804.00,162.23
803.00,263.27
802.00,378.99
801.00,156.23
800.00,104.59
799.00,117.49
798.00,151.67
797.00,172.86
796.00,150.66
795.00,146.95
794.00,141.39
793.00,122.24
792.00,127.98
791.00,109.79
790.00,49.30
789.00,63.80
788.00,63.12
787.00,71.58
786.00,158.55
785.00,81.71
784.00,31.41
783.00,62.54
782.00,101.07
781.00,84.64
780.00,141.19
779.00,194.40
778.00,179.36
777.00,146.46
776.00,124.14
775.00,108.76
774.00,64.74
773.00,74.57
772.00,126.93
771.00,184.03
770.00,192.54
769.00,196.39
768.00,226.29
767.00,351.27
766.00,151.04
765.00,143.60
764.00,178.79
763.00,324.38
762.00,150.09
761.00,232.98
760.00,241.77
759.00,158.93
758.00,123.86
757.00,201.14
756.00,222.41
755.00,228.34
754.00,257.75
753.00,140.83
752.00,111.57
751.00,96.02
750.00,61.52
749.00,45.11
748.00,62.39
747.00,85.20
746.00,65.55
745.00,35.02
744.00,101.34
743.00,95.61
742.00,39.70
741.00,70.06
740.00,158.42
739.00,203.60
738.00,132.34
737.00,462.64
736.00,377.35
735.00,334.13
734.00,342.53
733.00,193.55
732.00,175.01
731.00,294.85
730.00,456.87
729.00,166.12
728.00,122.58
727.00,168.05
726.00,83.63
725.00,330.05
724.00,218.49
723.00,203.32
722.00,41.39
721.00,81.82
720.00,113.69
719.00,60.62
718.00,10.31
717.00,14.64
716.00,34.94
715.00,13.04
714.00,71.49
713.00,144.19
712.00,193.48
711.00,229.47
710.00,212.96
709.00,298.03
708.00,124.27
707.00,93.69
706.00,62.82
705.00,65.71
704.00,111.52
703.00,127.95
702.00,198.14
701.00,177.17
700.00,180.22
699.00,193.00
698.00,129.89
697.00,561.37
696.00,338.57
695.00,273.92
694.00,153.59
693.00,128.75
692.00,34.26
691.00,149.27
690.00,-64.58
689.00,349.75
688.00,-50.14
687.00,777.05
686.00,8688.42
685.00,781.94
684.00,-80.49
683.00,322.36
682.00,27.31
681.00,175.29
680.00,60.55
679.00,154.57
678.00,119.02
677.00,275.96
676.00,261.76
675.00,351.70
674.00,186.76
673.00,284.54
672.00,214.56
671.00,339.94
670.00,122.10
669.00,172.57
668.00,294.87
667.00,534.26
666.00,561.71
665.00,666.49
664.00,292.92
663.00,271.56
662.00,217.22
661.00,70.81
660.00,52.52
659.00,44.66
658.00,129.63
657.00,70.68
656.00,69.19
655.00,78.15
654.00,52.18
653.00,93.71
652.00,100.26
651.00,62.36
650.00,46.26
649.00,108.27
648.00,111.07
647.00,150.67
646.00,624.44
645.00,514.72
644.00,328.01
643.00,450.88
642.00,165.36
641.00,150.63
640.00,158.68
639.00,160.87
638.00,168.30
637.00,129.05
636.00,115.05
635.00,132.98
634.00,231.97
633.00,233.76
632.00,196.02
631.00,321.50
630.00,460.66
629.00,298.71
628.00,234.92
627.00,251.88
626.00,226.36
625.00,280.63
624.00,220.70
623.00,207.11
622.00,129.44
621.00,459.01
620.00,272.49
619.00,184.36
618.00,218.79
617.00,406.66
616.00,294.63
615.00,651.39
614.00,383.06
613.00,271.59
612.00,169.54
611.00,142.37
610.00,168.98
609.00,159.11
608.00,169.44
607.00,213.20
606.00,161.48
605.00,168.47
604.00,97.52
603.00,58.05
602.00,58.21
601.00,76.18
600.00,136.02
599.00,160.70
598.00,135.85
597.00,186.16
596.00,231.95
595.00,206.77
594.00,114.01
593.00,183.89
592.00,254.45
591.00,1054.44
590.00,428.32
589.00,120.19
588.00,115.43
587.00,95.67
586.00,117.26
585.00,115.33
584.00,108.69
583.00,75.32
582.00,71.79
581.00,84.52
580.00,161.33
579.00,656.99
578.00,225.02
577.00,428.51
576.00,354.23
575.00,388.85
574.00,113.86
573.00,126.82
572.00,136.67
571.00,88.63
570.00,62.17
569.00,83.59
568.00,133.30
567.00,161.28
566.00,273.41
565.00,1165.16
564.00,308.31
563.00,246.66
562.00,168.08
561.00,28.69
560.00,54.28
559.00,42.43
558.00,36.58
557.00,97.91
556.00,159.72
555.00,320.34
554.00,564.61
553.00,332.07
552.00,266.20
551.00,155.30
550.00,48.94
549.00,88.86
548.00,115.48
547.00,60.43
546.00,27.58
545.00,120.03
544.00,302.71
543.00,134.06
542.00,83.73
541.00,295.55
540.00,584.68
539.00,420.43
538.00,527.12
537.00,288.50
536.00,213.65
535.00,373.23
534.00,116.06
533.00,465.65
532.00,1397.15
531.00,439.87
530.00,89.91
529.00,270.96
528.00,997.90
527.00,763.11
526.00,548.13
525.00,523.71
524.00,261.61
523.00,201.00
522.00,89.92
521.00,159.11
520.00,162.10
519.00,207.97
518.00,463.39
517.00,141.38
516.00,95.67
515.00,89.20
514.00,81.40
513.00,113.96
512.00,135.32
511.00,81.49
510.00,38.44
509.00,138.58
508.00,398.13
507.00,147.37
506.00,47.11
505.00,68.85
504.00,73.68
503.00,77.23
502.00,231.74
501.00,102.85
500.00,23.58
499.00,65.83
498.00,163.07
497.00,48.69
496.00,174.67
495.00,109.56
494.00,48.27
493.00,119.97
492.00,232.41
491.00,139.13
490.00,46.67
489.00,68.65
488.00,79.42
487.00,70.42
486.00,66.45
485.00,99.19
484.00,109.60
483.00,67.15
482.00,12.16
481.00,71.17
480.00,115.06
479.00,112.59
478.00,84.34
477.00,87.88
476.00,100.16
475.00,123.28
474.00,114.05
473.00,194.70
472.00,239.23
471.00,225.81
470.00,287.23
469.00,52.23
468.00,49.74
467.00,65.41
466.00,60.37
465.00,86.86
464.00,90.55
463.00,108.73
462.00,331.86
461.00,289.86
460.00,240.00
459.00,563.75
458.00,43.60
457.00,205.05
456.00,171.89
455.00,80.93
454.00,57.25
453.00,81.68
452.00,108.93
451.00,42.75
450.00,125.49
