Created as New Dataset,Sample 006 By Administrator Date Thursday, October 16 2025
cm-1,%T
4000.00,99.63
3999.00,99.63
3998.00,99.63
3997.00,99.63
3996.00,99.64
3995.00,99.65
3994.00,99.65
3993.00,99.65
3992.00,99.64
3991.00,99.64
3990.00,99.65
3989.00,99.65
3988.00,99.66
3987.00,99.66
3986.00,99.66
3985.00,99.66
3984.00,99.65
3983.00,99.65
3982.00,99.64
3981.00,99.65
3980.00,99.66
3979.00,99.66
3978.00,99.66
3977.00,99.67
3976.00,99.66
3975.00,99.66
3974.00,99.66
3973.00,99.66
3972.00,99.66
3971.00,99.66
3970.00,99.66
3969.00,99.66
3968.00,99.65
3967.00,99.65
3966.00,99.65
3965.00,99.65
3964.00,99.65
3963.00,99.65
3962.00,99.66
3961.00,99.66
3960.00,99.65
3959.00,99.64
3958.00,99.64
3957.00,99.64
3956.00,99.65
3955.00,99.65
3954.00,99.64
3953.00,99.63
3952.00,99.63
3951.00,99.64
3950.00,99.66
3949.00,99.68
3948.00,99.71
3947.00,99.73
3946.00,99.71
3945.00,99.66
3944.00,99.61
3943.00,99.61
3942.00,99.63
3941.00,99.65
3940.00,99.64
3939.00,99.64
3938.00,99.66
3937.00,99.69
3936.00,99.71
3935.00,99.72
3934.00,99.72
3933.00,99.71
3932.00,99.69
3931.00,99.65
3930.00,99.63
3929.00,99.64
3928.00,99.65
3927.00,99.62
3926.00,99.59
3925.00,99.61
3924.00,99.65
3923.00,99.68
3922.00,99.69
3921.00,99.71
3920.00,99.75
3919.00,99.76
3918.00,99.74
3917.00,99.72
3916.00,99.72
3915.00,99.71
3914.00,99.68
3913.00,99.65
3912.00,99.65
3911.00,99.65
3910.00,99.65
3909.00,99.65
3908.00,99.65
3907.00,99.64
3906.00,99.65
3905.00,99.74
3904.00,99.89
3903.00,100.00
3902.00,99.98
3901.00,99.88
3900.00,99.79
3899.00,99.76
3898.00,99.76
3897.00,99.74
3896.00,99.73
3895.00,99.73
3894.00,99.72
3893.00,99.68
3892.00,99.66
3891.00,99.73
3890.00,99.83
3889.00,99.88
3888.00,99.85
3887.00,99.83
3886.00,99.84
3885.00,99.85
3884.00,99.79
3883.00,99.67
3882.00,99.58
3881.00,99.61
3880.00,99.71
3879.00,99.79
3878.00,99.80
3877.00,99.73
3876.00,99.65
3875.00,99.66
3874.00,99.74
3873.00,99.82
3872.00,99.80
3871.00,99.77
3870.00,99.85
3869.00,99.94
3868.00,99.91
3867.00,99.78
3866.00,99.74
3865.00,99.79
3864.00,99.81
3863.00,99.77
3862.00,99.76
3861.00,99.81
3860.00,99.82
3859.00,99.78
3858.00,99.72
3857.00,99.69
3856.00,99.72
3855.00,99.78
3854.00,99.83
3853.00,99.88
3852.00,99.89
3851.00,99.85
3850.00,99.83
3849.00,99.86
3848.00,99.87
3847.00,99.82
3846.00,99.76
3845.00,99.73
3844.00,99.73
3843.00,99.75
3842.00,99.78
3841.00,99.76
3840.00,99.73
3839.00,99.73
3838.00,99.75
3837.00,99.75
3836.00,99.75
3835.00,99.77
3834.00,99.78
3833.00,99.78
3832.00,99.78
3831.00,99.80
3830.00,99.80
3829.00,99.75
3828.00,99.68
3827.00,99.68
3826.00,99.79
3825.00,99.88
3824.00,99.88
3823.00,99.82
3822.00,99.80
3821.00,99.85
3820.00,99.92
3819.00,99.89
3818.00,99.81
3817.00,99.79
3816.00,99.84
3815.00,99.86
3814.00,99.80
3813.00,99.72
3812.00,99.74
3811.00,99.84
3810.00,99.90
3809.00,99.87
3808.00,99.84
3807.00,99.89
3806.00,99.97
3805.00,99.95
3804.00,99.85
3803.00,99.78
3802.00,99.80
3801.00,99.83
3800.00,99.80
3799.00,99.73
3798.00,99.69
3797.00,99.74
3796.00,99.79
3795.00,99.78
3794.00,99.72
3793.00,99.68
3792.00,99.68
3791.00,99.69
3790.00,99.69
3789.00,99.68
3788.00,99.68
3787.00,99.67
3786.00,99.65
3785.00,99.66
3784.00,99.69
3783.00,99.71
3782.00,99.68
3781.00,99.64
3780.00,99.64
3779.00,99.69
3778.00,99.73
3777.00,99.71
3776.00,99.69
3775.00,99.72
3774.00,99.78
3773.00,99.78
3772.00,99.74
3771.00,99.74
3770.00,99.80
3769.00,99.82
3768.00,99.79
3767.00,99.75
3766.00,99.76
3765.00,99.80
3764.00,99.82
3763.00,99.80
3762.00,99.76
3761.00,99.76
3760.00,99.77
3759.00,99.77
3758.00,99.79
3757.00,99.84
3756.00,99.88
3755.00,99.92
3754.00,100.00
3753.00,100.14
3752.00,100.26
3751.00,100.28
3750.00,100.26
3749.00,100.28
3748.00,100.23
3747.00,100.06
3746.00,99.90
3745.00,99.88
3744.00,99.95
3743.00,100.00
3742.00,99.99
3741.00,100.02
3740.00,100.15
3739.00,100.25
3738.00,100.21
3737.00,100.14
3736.00,100.11
3735.00,100.07
3734.00,100.01
3733.00,99.98
3732.00,99.98
3731.00,99.98
3730.00,99.94
3729.00,99.90
3728.00,99.89
3727.00,99.91
3726.00,99.90
3725.00,99.84
3724.00,99.78
3723.00,99.75
3722.00,99.76
3721.00,99.77
3720.00,99.76
3719.00,99.75
3718.00,99.77
3717.00,99.83
3716.00,99.90
3715.00,99.94
3714.00,100.00
3713.00,100.04
3712.00,100.01
3711.00,99.92
3710.00,99.86
3709.00,99.84
3708.00,99.82
3707.00,99.82
3706.00,99.81
3705.00,99.79
3704.00,99.74
3703.00,99.69
3702.00,99.68
3701.00,99.71
3700.00,99.73
3699.00,99.72
3698.00,99.72
3697.00,99.75
3696.00,99.78
3695.00,99.77
3694.00,99.76
3693.00,99.78
3692.00,99.80
3691.00,99.80
3690.00,99.82
3689.00,99.87
3688.00,99.90
3687.00,99.89
3686.00,99.84
3685.00,99.82
3684.00,99.84
3683.00,99.86
3682.00,99.82
3681.00,99.79
3680.00,99.84
3679.00,99.97
3678.00,100.07
3677.00,100.08
3676.00,100.07
3675.00,100.09
3674.00,100.08
3673.00,100.03
3672.00,99.99
3671.00,100.01
3670.00,99.99
3669.00,99.93
3668.00,99.87
3667.00,99.82
3666.00,99.81
3665.00,99.81
3664.00,99.80
3663.00,99.76
3662.00,99.73
3661.00,99.75
3660.00,99.81
3659.00,99.86
3658.00,99.87
3657.00,99.88
3656.00,99.92
3655.00,99.95
3654.00,99.94
3653.00,99.94
3652.00,100.04
3651.00,100.17
3650.00,100.19
3649.00,100.08
3648.00,99.98
3647.00,99.93
3646.00,99.90
3645.00,99.86
3644.00,99.82
3643.00,99.79
3642.00,99.77
3641.00,99.74
3640.00,99.72
3639.00,99.72
3638.00,99.75
3637.00,99.77
3636.00,99.77
3635.00,99.79
3634.00,99.85
3633.00,99.96
3632.00,100.05
3631.00,100.13
3630.00,100.17
3629.00,100.18
3628.00,100.13
3627.00,100.03
3626.00,99.94
3625.00,99.91
3624.00,99.93
3623.00,99.91
3622.00,99.84
3621.00,99.78
3620.00,99.76
3619.00,99.77
3618.00,99.81
3617.00,99.85
3616.00,99.86
3615.00,99.87
3614.00,99.90
3613.00,99.98
3612.00,100.04
3611.00,100.06
3610.00,100.05
3609.00,100.02
3608.00,99.96
3607.00,99.89
3606.00,99.82
3605.00,99.80
3604.00,99.78
3603.00,99.75
3602.00,99.73
3601.00,99.74
3600.00,99.75
3599.00,99.75
3598.00,99.75
3597.00,99.76
3596.00,99.76
3595.00,99.76
3594.00,99.78
3593.00,99.83
3592.00,99.89
3591.00,99.92
3590.00,99.94
3589.00,99.93
3588.00,99.90
3587.00,99.87
3586.00,99.85
3585.00,99.83
3584.00,99.81
3583.00,99.78
3582.00,99.76
3581.00,99.74
3580.00,99.72
3579.00,99.69
3578.00,99.68
3577.00,99.69
3576.00,99.70
3575.00,99.71
3574.00,99.73
3573.00,99.76
3572.00,99.80
3571.00,99.84
3570.00,99.88
3569.00,99.91
3568.00,99.92
3567.00,99.89
3566.00,99.86
3565.00,99.82
3564.00,99.79
3563.00,99.77
3562.00,99.76
3561.00,99.76
3560.00,99.76
3559.00,99.74
3558.00,99.74
3557.00,99.74
3556.00,99.75
3555.00,99.74
3554.00,99.73
3553.00,99.73
3552.00,99.75
3551.00,99.77
3550.00,99.78
3549.00,99.80
3548.00,99.82
3547.00,99.82
3546.00,99.81
3545.00,99.79
3544.00,99.77
3543.00,99.75
3542.00,99.74
3541.00,99.74
3540.00,99.75
3539.00,99.74
3538.00,99.74
3537.00,99.74
3536.00,99.75
3535.00,99.75
3534.00,99.74
3533.00,99.75
3532.00,99.75
3531.00,99.75
3530.00,99.74
3529.00,99.74
3528.00,99.76
3527.00,99.79
3526.00,99.80
3525.00,99.80
3524.00,99.79
3523.00,99.77
3522.00,99.76
3521.00,99.75
3520.00,99.75
3519.00,99.74
3518.00,99.74
3517.00,99.75
3516.00,99.75
3515.00,99.74
3514.00,99.73
3513.00,99.74
3512.00,99.74
3511.00,99.74
3510.00,99.74
3509.00,99.76
3508.00,99.77
3507.00,99.77
3506.00,99.76
3505.00,99.75
3504.00,99.75
3503.00,99.75
3502.00,99.76
3501.00,99.77
3500.00,99.77
3499.00,99.77
3498.00,99.76
3497.00,99.76
3496.00,99.75
3495.00,99.75
3494.00,99.74
3493.00,99.74
3492.00,99.75
3491.00,99.74
3490.00,99.74
3489.00,99.75
3488.00,99.75
3487.00,99.76
3486.00,99.75
3485.00,99.75
3484.00,99.75
3483.00,99.75
3482.00,99.75
3481.00,99.76
3480.00,99.76
3479.00,99.76
3478.00,99.75
3477.00,99.74
3476.00,99.73
3475.00,99.73
3474.00,99.72
3473.00,99.73
3472.00,99.73
3471.00,99.74
3470.00,99.75
3469.00,99.76
3468.00,99.76
3467.00,99.76
3466.00,99.75
3465.00,99.74
3464.00,99.73
3463.00,99.72
3462.00,99.72
3461.00,99.73
3460.00,99.74
3459.00,99.74
3458.00,99.74
3457.00,99.74
3456.00,99.74
3455.00,99.74
3454.00,99.74
3453.00,99.74
3452.00,99.74
3451.00,99.74
3450.00,99.73
3449.00,99.73
3448.00,99.72
3447.00,99.73
3446.00,99.74
3445.00,99.74
3444.00,99.74
3443.00,99.74
3442.00,99.75
3441.00,99.76
3440.00,99.77
3439.00,99.76
3438.00,99.76
3437.00,99.76
3436.00,99.76
3435.00,99.76
3434.00,99.76
3433.00,99.76
3432.00,99.76
3431.00,99.76
3430.00,99.76
3429.00,99.76
3428.00,99.75
3427.00,99.75
3426.00,99.75
3425.00,99.75
3424.00,99.75
3423.00,99.75
3422.00,99.74
3421.00,99.75
3420.00,99.75
3419.00,99.76
3418.00,99.75
3417.00,99.75
3416.00,99.75
3415.00,99.75
3414.00,99.75
3413.00,99.75
3412.00,99.75
3411.00,99.74
3410.00,99.75
3409.00,99.75
3408.00,99.76
3407.00,99.76
3406.00,99.75
3405.00,99.76
3404.00,99.76
3403.00,99.76
3402.00,99.76
3401.00,99.76
3400.00,99.76
3399.00,99.75
3398.00,99.75
3397.00,99.75
3396.00,99.75
3395.00,99.75
3394.00,99.75
3393.00,99.76
3392.00,99.76
3391.00,99.76
3390.00,99.75
3389.00,99.75
3388.00,99.76
3387.00,99.76
3386.00,99.76
3385.00,99.77
3384.00,99.77
3383.00,99.77
3382.00,99.76
3381.00,99.76
3380.00,99.75
3379.00,99.74
3378.00,99.74
3377.00,99.74
3376.00,99.74
3375.00,99.75
3374.00,99.75
3373.00,99.75
3372.00,99.76
3371.00,99.76
3370.00,99.76
3369.00,99.75
3368.00,99.75
3367.00,99.74
3366.00,99.73
3365.00,99.73
3364.00,99.74
3363.00,99.75
3362.00,99.75
3361.00,99.76
3360.00,99.75
3359.00,99.75
3358.00,99.75
3357.00,99.75
3356.00,99.75
3355.00,99.74
3354.00,99.74
3353.00,99.75
3352.00,99.75
3351.00,99.75
3350.00,99.75
3349.00,99.75
3348.00,99.74
3347.00,99.74
3346.00,99.74
3345.00,99.75
3344.00,99.75
3343.00,99.76
3342.00,99.75
3341.00,99.75
3340.00,99.75
3339.00,99.75
3338.00,99.75
3337.00,99.75
3336.00,99.75
3335.00,99.75
3334.00,99.75
3333.00,99.74
3332.00,99.74
3331.00,99.73
3330.00,99.73
3329.00,99.74
3328.00,99.74
3327.00,99.74
3326.00,99.74
3325.00,99.74
3324.00,99.74
3323.00,99.75
3322.00,99.75
3321.00,99.75
3320.00,99.74
3319.00,99.74
3318.00,99.74
3317.00,99.74
3316.00,99.74
3315.00,99.74
3314.00,99.75
3313.00,99.75
3312.00,99.75
3311.00,99.75
3310.00,99.75
3309.00,99.76
3308.00,99.76
3307.00,99.76
3306.00,99.76
3305.00,99.75
3304.00,99.75
3303.00,99.74
3302.00,99.74
3301.00,99.74
3300.00,99.74
3299.00,99.74
3298.00,99.74
3297.00,99.75
3296.00,99.75
3295.00,99.76
3294.00,99.76
3293.00,99.77
3292.00,99.76
3291.00,99.76
3290.00,99.75
3289.00,99.75
3288.00,99.74
3287.00,99.74
3286.00,99.74
3285.00,99.74
3284.00,99.75
3283.00,99.75
3282.00,99.75
3281.00,99.75
3280.00,99.76
3279.00,99.76
3278.00,99.76
3277.00,99.77
3276.00,99.77
3275.00,99.76
3274.00,99.76
3273.00,99.76
3272.00,99.76
3271.00,99.75
3270.00,99.75
3269.00,99.75
3268.00,99.75
3267.00,99.74
3266.00,99.74
3265.00,99.75
3264.00,99.76
3263.00,99.76
3262.00,99.76
3261.00,99.76
3260.00,99.75
3259.00,99.75
3258.00,99.74
3257.00,99.74
3256.00,99.74
3255.00,99.74
3254.00,99.74
3253.00,99.74
3252.00,99.74
3251.00,99.73
3250.00,99.73
3249.00,99.74
3248.00,99.74
3247.00,99.74
3246.00,99.74
3245.00,99.74
3244.00,99.74
3243.00,99.74
3242.00,99.74
3241.00,99.74
3240.00,99.74
3239.00,99.74
3238.00,99.74
3237.00,99.74
3236.00,99.74
3235.00,99.74
3234.00,99.74
3233.00,99.75
3232.00,99.75
3231.00,99.75
3230.00,99.75
3229.00,99.75
3228.00,99.75
3227.00,99.74
3226.00,99.74
3225.00,99.74
3224.00,99.75
3223.00,99.75
3222.00,99.75
3221.00,99.75
3220.00,99.75
3219.00,99.75
3218.00,99.75
3217.00,99.75
3216.00,99.76
3215.00,99.75
3214.00,99.75
3213.00,99.75
3212.00,99.74
3211.00,99.74
3210.00,99.73
3209.00,99.74
3208.00,99.74
3207.00,99.74
3206.00,99.74
3205.00,99.74
3204.00,99.74
3203.00,99.74
3202.00,99.74
3201.00,99.74
3200.00,99.75
3199.00,99.75
3198.00,99.75
3197.00,99.74
3196.00,99.74
3195.00,99.74
3194.00,99.74
3193.00,99.74
3192.00,99.74
3191.00,99.74
3190.00,99.74
3189.00,99.74
3188.00,99.74
3187.00,99.73
3186.00,99.73
3185.00,99.74
3184.00,99.74
3183.00,99.74
3182.00,99.73
3181.00,99.73
3180.00,99.72
3179.00,99.72
3178.00,99.72
3177.00,99.72
3176.00,99.73
3175.00,99.72
3174.00,99.72
3173.00,99.72
3172.00,99.73
3171.00,99.73
3170.00,99.74
3169.00,99.74
3168.00,99.74
3167.00,99.73
3166.00,99.73
3165.00,99.73
3164.00,99.74
3163.00,99.74
3162.00,99.73
3161.00,99.73
3160.00,99.73
3159.00,99.73
3158.00,99.73
3157.00,99.73
3156.00,99.72
3155.00,99.72
3154.00,99.73
3153.00,99.74
3152.00,99.74
3151.00,99.74
3150.00,99.73
3149.00,99.73
3148.00,99.73
3147.00,99.72
3146.00,99.72
3145.00,99.72
3144.00,99.72
3143.00,99.73
3142.00,99.73
3141.00,99.73
3140.00,99.73
3139.00,99.73
3138.00,99.73
3137.00,99.74
3136.00,99.74
3135.00,99.74
3134.00,99.73
3133.00,99.73
3132.00,99.73
3131.00,99.73
3130.00,99.73
3129.00,99.74
3128.00,99.74
3127.00,99.74
3126.00,99.74
3125.00,99.74
3124.00,99.74
3123.00,99.74
3122.00,99.74
3121.00,99.74
3120.00,99.73
3119.00,99.73
3118.00,99.73
3117.00,99.74
3116.00,99.75
3115.00,99.74
3114.00,99.74
3113.00,99.73
3112.00,99.73
3111.00,99.73
3110.00,99.73
3109.00,99.74
3108.00,99.74
3107.00,99.73
3106.00,99.73
3105.00,99.73
3104.00,99.73
3103.00,99.72
3102.00,99.73
3101.00,99.74
3100.00,99.74
3099.00,99.74
3098.00,99.74
3097.00,99.74
3096.00,99.74
3095.00,99.74
3094.00,99.74
3093.00,99.74
3092.00,99.74
3091.00,99.73
3090.00,99.73
3089.00,99.73
3088.00,99.73
3087.00,99.73
3086.00,99.73
3085.00,99.74
3084.00,99.73
3083.00,99.73
3082.00,99.73
3081.00,99.73
3080.00,99.73
3079.00,99.74
3078.00,99.74
3077.00,99.74
3076.00,99.73
3075.00,99.73
3074.00,99.73
3073.00,99.73
3072.00,99.73
3071.00,99.73
3070.00,99.73
3069.00,99.74
3068.00,99.74
3067.00,99.73
3066.00,99.73
3065.00,99.73
3064.00,99.73
3063.00,99.73
3062.00,99.72
3061.00,99.72
3060.00,99.72
3059.00,99.73
3058.00,99.73
3057.00,99.73
3056.00,99.73
3055.00,99.73
3054.00,99.72
3053.00,99.72
3052.00,99.72
3051.00,99.72
3050.00,99.72
3049.00,99.73
3048.00,99.73
3047.00,99.72
3046.00,99.72
3045.00,99.72
3044.00,99.72
3043.00,99.72
3042.00,99.72
3041.00,99.72
3040.00,99.72
3039.00,99.72
3038.00,99.72
3037.00,99.72
3036.00,99.73
3035.00,99.73
3034.00,99.73
3033.00,99.73
3032.00,99.73
3031.00,99.73
3030.00,99.73
3029.00,99.73
3028.00,99.72
3027.00,99.72
3026.00,99.72
3025.00,99.72
3024.00,99.72
3023.00,99.72
3022.00,99.72
3021.00,99.73
3020.00,99.74
3019.00,99.75
3018.00,99.76
3017.00,99.77
3016.00,99.77
3015.00,99.76
3014.00,99.75
3013.00,99.74
3012.00,99.74
3011.00,99.73
3010.00,99.73
3009.00,99.73
3008.00,99.73
3007.00,99.73
3006.00,99.73
3005.00,99.73
3004.00,99.73
3003.00,99.73
3002.00,99.73
3001.00,99.73
3000.00,99.74
2999.00,99.74
2998.00,99.73
2997.00,99.73
2996.00,99.73
2995.00,99.72
2994.00,99.72
2993.00,99.72
2992.00,99.72
2991.00,99.72
2990.00,99.72
2989.00,99.72
2988.00,99.72
2987.00,99.71
2986.00,99.72
2985.00,99.72
2984.00,99.73
2983.00,99.73
2982.00,99.73
2981.00,99.73
2980.00,99.73
2979.00,99.72
2978.00,99.72
2977.00,99.72
2976.00,99.72
2975.00,99.72
2974.00,99.73
2973.00,99.73
2972.00,99.73
2971.00,99.72
2970.00,99.72
2969.00,99.72
2968.00,99.72
2967.00,99.71
2966.00,99.71
2965.00,99.71
2964.00,99.71
2963.00,99.71
2962.00,99.71
2961.00,99.71
2960.00,99.71
2959.00,99.71
2958.00,99.70
2957.00,99.70
2956.00,99.70
2955.00,99.70
2954.00,99.70
2953.00,99.71
2952.00,99.71
2951.00,99.72
2950.00,99.72
2949.00,99.72
2948.00,99.72
2947.00,99.71
2946.00,99.71
2945.00,99.72
2944.00,99.72
2943.00,99.72
2942.00,99.72
2941.00,99.73
2940.00,99.73
2939.00,99.74
2938.00,99.74
2937.00,99.74
2936.00,99.74
2935.00,99.73
2934.00,99.73
2933.00,99.73
2932.00,99.73
2931.00,99.74
2930.00,99.74
2929.00,99.73
2928.00,99.73
2927.00,99.72
2926.00,99.72
2925.00,99.72
2924.00,99.71
2923.00,99.71
2922.00,99.70
2921.00,99.69
2920.00,99.68
2919.00,99.67
2918.00,99.67
2917.00,99.67
2916.00,99.67
2915.00,99.67
2914.00,99.67
2913.00,99.67
2912.00,99.67
2911.00,99.68
2910.00,99.68
2909.00,99.69
2908.00,99.70
2907.00,99.70
2906.00,99.70
2905.00,99.69
2904.00,99.68
2903.00,99.68
2902.00,99.69
2901.00,99.70
2900.00,99.70
2899.00,99.70
2898.00,99.70
2897.00,99.70
2896.00,99.70
2895.00,99.70
2894.00,99.70
2893.00,99.71
2892.00,99.71
2891.00,99.70
2890.00,99.70
2889.00,99.71
2888.00,99.71
2887.00,99.71
2886.00,99.71
2885.00,99.71
2884.00,99.71
2883.00,99.70
2882.00,99.71
2881.00,99.72
2880.00,99.72
2879.00,99.72
2878.00,99.72
2877.00,99.72
2876.00,99.72
2875.00,99.71
2874.00,99.71
2873.00,99.71
2872.00,99.71
2871.00,99.71
2870.00,99.71
2869.00,99.71
2868.00,99.71
2867.00,99.70
2866.00,99.70
2865.00,99.70
2864.00,99.70
2863.00,99.71
2862.00,99.71
2861.00,99.71
2860.00,99.71
2859.00,99.71
2858.00,99.71
2857.00,99.72
2856.00,99.71
2855.00,99.71
2854.00,99.71
2853.00,99.70
2852.00,99.70
2851.00,99.68
2850.00,99.68
2849.00,99.68
2848.00,99.68
2847.00,99.68
2846.00,99.69
2845.00,99.69
2844.00,99.69
2843.00,99.70
2842.00,99.70
2841.00,99.71
2840.00,99.71
2839.00,99.71
2838.00,99.70
2837.00,99.70
2836.00,99.70
2835.00,99.71
2834.00,99.72
2833.00,99.72
2832.00,99.72
2831.00,99.72
2830.00,99.72
2829.00,99.72
2828.00,99.71
2827.00,99.71
2826.00,99.70
2825.00,99.70
2824.00,99.70
2823.00,99.70
2822.00,99.71
2821.00,99.71
2820.00,99.71
2819.00,99.71
2818.00,99.71
2817.00,99.71
2816.00,99.71
2815.00,99.71
2814.00,99.71
2813.00,99.71
2812.00,99.71
2811.00,99.71
2810.00,99.72
2809.00,99.72
2808.00,99.72
2807.00,99.72
2806.00,99.72
2805.00,99.72
2804.00,99.72
2803.00,99.72
2802.00,99.72
2801.00,99.72
2800.00,99.71
2799.00,99.71
2798.00,99.71
2797.00,99.71
2796.00,99.71
2795.00,99.71
2794.00,99.71
2793.00,99.71
2792.00,99.71
2791.00,99.71
2790.00,99.71
2789.00,99.71
2788.00,99.71
2787.00,99.71
2786.00,99.71
2785.00,99.71
2784.00,99.71
2783.00,99.71
2782.00,99.71
2781.00,99.70
2780.00,99.70
2779.00,99.71
2778.00,99.71
2777.00,99.71
2776.00,99.71
2775.00,99.71
2774.00,99.72
2773.00,99.72
2772.00,99.72
2771.00,99.72
2770.00,99.72
2769.00,99.71
2768.00,99.71
2767.00,99.72
2766.00,99.72
2765.00,99.72
2764.00,99.72
2763.00,99.72
2762.00,99.72
2761.00,99.72
2760.00,99.72
2759.00,99.72
2758.00,99.72
2757.00,99.71
2756.00,99.71
2755.00,99.71
2754.00,99.71
2753.00,99.71
2752.00,99.71
2751.00,99.71
2750.00,99.71
2749.00,99.71
2748.00,99.71
2747.00,99.71
2746.00,99.71
2745.00,99.71
2744.00,99.71
2743.00,99.70
2742.00,99.70
2741.00,99.70
2740.00,99.70
2739.00,99.71
2738.00,99.71
2737.00,99.71
2736.00,99.71
2735.00,99.72
2734.00,99.72
2733.00,99.72
2732.00,99.72
2731.00,99.72
2730.00,99.72
2729.00,99.72
2728.00,99.71
2727.00,99.71
2726.00,99.71
2725.00,99.71
2724.00,99.71
2723.00,99.71
2722.00,99.71
2721.00,99.71
2720.00,99.71
2719.00,99.71
2718.00,99.72
2717.00,99.72
2716.00,99.71
2715.00,99.71
2714.00,99.71
2713.00,99.72
2712.00,99.72
2711.00,99.71
2710.00,99.71
2709.00,99.71
2708.00,99.71
2707.00,99.71
2706.00,99.71
2705.00,99.71
2704.00,99.71
2703.00,99.72
2702.00,99.72
2701.00,99.72
2700.00,99.72
2699.00,99.71
2698.00,99.71
2697.00,99.71
2696.00,99.71
2695.00,99.71
2694.00,99.71
2693.00,99.72
2692.00,99.72
2691.00,99.72
2690.00,99.72
2689.00,99.72
2688.00,99.71
2687.00,99.70
2686.00,99.70
2685.00,99.70
2684.00,99.70
2683.00,99.71
2682.00,99.71
2681.00,99.71
2680.00,99.71
2679.00,99.71
2678.00,99.72
2677.00,99.72
2676.00,99.72
2675.00,99.72
2674.00,99.72
2673.00,99.72
2672.00,99.72
2671.00,99.72
2670.00,99.72
2669.00,99.72
2668.00,99.72
2667.00,99.72
2666.00,99.72
2665.00,99.72
2664.00,99.72
2663.00,99.71
2662.00,99.71
2661.00,99.71
2660.00,99.71
2659.00,99.71
2658.00,99.71
2657.00,99.71
2656.00,99.71
2655.00,99.71
2654.00,99.71
2653.00,99.71
2652.00,99.71
2651.00,99.71
2650.00,99.71
2649.00,99.71
2648.00,99.71
2647.00,99.71
2646.00,99.71
2645.00,99.71
2644.00,99.71
2643.00,99.72
2642.00,99.72
2641.00,99.72
2640.00,99.71
2639.00,99.71
2638.00,99.71
2637.00,99.71
2636.00,99.71
2635.00,99.71
2634.00,99.72
2633.00,99.73
2632.00,99.73
2631.00,99.73
2630.00,99.72
2629.00,99.72
2628.00,99.72
2627.00,99.72
2626.00,99.72
2625.00,99.72
2624.00,99.72
2623.00,99.71
2622.00,99.71
2621.00,99.71
2620.00,99.71
2619.00,99.71
2618.00,99.72
2617.00,99.72
2616.00,99.72
2615.00,99.72
2614.00,99.72
2613.00,99.72
2612.00,99.72
2611.00,99.72
2610.00,99.72
2609.00,99.72
2608.00,99.72
2607.00,99.72
2606.00,99.72
2605.00,99.72
2604.00,99.71
2603.00,99.71
2602.00,99.71
2601.00,99.72
2600.00,99.72
2599.00,99.72
2598.00,99.72
2597.00,99.73
2596.00,99.73
2595.00,99.72
2594.00,99.72
2593.00,99.72
2592.00,99.72
2591.00,99.71
2590.00,99.71
2589.00,99.72
2588.00,99.72
2587.00,99.72
2586.00,99.72
2585.00,99.72
2584.00,99.71
2583.00,99.71
2582.00,99.71
2581.00,99.72
2580.00,99.72
2579.00,99.71
2578.00,99.72
2577.00,99.71
2576.00,99.71
2575.00,99.71
2574.00,99.72
2573.00,99.72
2572.00,99.72
2571.00,99.72
2570.00,99.72
2569.00,99.71
2568.00,99.71
2567.00,99.71
2566.00,99.71
2565.00,99.71
2564.00,99.71
2563.00,99.71
2562.00,99.72
2561.00,99.72
2560.00,99.72
2559.00,99.72
2558.00,99.72
2557.00,99.72
2556.00,99.72
2555.00,99.72
2554.00,99.72
2553.00,99.72
2552.00,99.72
2551.00,99.72
2550.00,99.72
2549.00,99.73
2548.00,99.73
2547.00,99.73
2546.00,99.73
2545.00,99.73
2544.00,99.72
2543.00,99.72
2542.00,99.72
2541.00,99.72
2540.00,99.72
2539.00,99.72
2538.00,99.72
2537.00,99.73
2536.00,99.72
2535.00,99.72
2534.00,99.73
2533.00,99.73
2532.00,99.73
2531.00,99.73
2530.00,99.73
2529.00,99.73
2528.00,99.73
2527.00,99.72
2526.00,99.72
2525.00,99.72
2524.00,99.72
2523.00,99.72
2522.00,99.72
2521.00,99.73
2520.00,99.73
2519.00,99.73
2518.00,99.73
2517.00,99.72
2516.00,99.72
2515.00,99.72
2514.00,99.72
2513.00,99.72
2512.00,99.73
2511.00,99.73
2510.00,99.73
2509.00,99.73
2508.00,99.72
2507.00,99.72
2506.00,99.72
2505.00,99.72
2504.00,99.72
2503.00,99.72
2502.00,99.73
2501.00,99.73
2500.00,99.72
2499.00,99.72
2498.00,99.73
2497.00,99.73
2496.00,99.73
2495.00,99.73
2494.00,99.73
2493.00,99.73
2492.00,99.73
2491.00,99.73
2490.00,99.73
2489.00,99.73
2488.00,99.74
2487.00,99.74
2486.00,99.74
2485.00,99.74
2484.00,99.74
2483.00,99.73
2482.00,99.73
2481.00,99.73
2480.00,99.73
2479.00,99.73
2478.00,99.73
2477.00,99.73
2476.00,99.73
2475.00,99.72
2474.00,99.72
2473.00,99.72
2472.00,99.71
2471.00,99.71
2470.00,99.72
2469.00,99.72
2468.00,99.73
2467.00,99.73
2466.00,99.73
2465.00,99.73
2464.00,99.73
2463.00,99.73
2462.00,99.73
2461.00,99.73
2460.00,99.73
2459.00,99.73
2458.00,99.73
2457.00,99.73
2456.00,99.72
2455.00,99.73
2454.00,99.73
2453.00,99.73
2452.00,99.73
2451.00,99.73
2450.00,99.73
2449.00,99.73
2448.00,99.72
2447.00,99.72
2446.00,99.72
2445.00,99.73
2444.00,99.73
2443.00,99.73
2442.00,99.74
2441.00,99.74
2440.00,99.74
2439.00,99.73
2438.00,99.73
2437.00,99.73
2436.00,99.72
2435.00,99.72
2434.00,99.73
2433.00,99.73
2432.00,99.73
2431.00,99.73
2430.00,99.73
2429.00,99.73
2428.00,99.73
2427.00,99.73
2426.00,99.73
2425.00,99.73
2424.00,99.73
2423.00,99.72
2422.00,99.73
2421.00,99.73
2420.00,99.73
2419.00,99.73
2418.00,99.73
2417.00,99.73
2416.00,99.74
2415.00,99.74
2414.00,99.74
2413.00,99.74
2412.00,99.74
2411.00,99.73
2410.00,99.73
2409.00,99.73
2408.00,99.73
2407.00,99.73
2406.00,99.73
2405.00,99.73
2404.00,99.73
2403.00,99.73
2402.00,99.73
2401.00,99.73
2400.00,99.73
2399.00,99.73
2398.00,99.74
2397.00,99.74
2396.00,99.73
2395.00,99.73
2394.00,99.73
2393.00,99.73
2392.00,99.74
2391.00,99.74
2390.00,99.75
2389.00,99.75
2388.00,99.75
2387.00,99.75
2386.00,99.76
2385.00,99.78
2384.00,99.78
2383.00,99.79
2382.00,99.79
2381.00,99.80
2380.00,99.79
2379.00,99.77
2378.00,99.76
2377.00,99.75
2376.00,99.73
2375.00,99.73
2374.00,99.73
2373.00,99.74
2372.00,99.74
2371.00,99.75
2370.00,99.77
2369.00,99.79
2368.00,99.79
2367.00,99.79
2366.00,99.78
2365.00,99.78
2364.00,99.76
2363.00,99.76
2362.00,99.78
2361.00,99.82
2360.00,99.84
2359.00,99.85
2358.00,99.85
2357.00,99.83
2356.00,99.80
2355.00,99.77
2354.00,99.75
2353.00,99.73
2352.00,99.75
2351.00,99.78
2350.00,99.82
2349.00,99.83
2348.00,99.82
2347.00,99.83
2346.00,99.83
2345.00,99.84
2344.00,99.86
2343.00,99.88
2342.00,99.90
2341.00,99.91
2340.00,99.90
2339.00,99.89
2338.00,99.87
2337.00,99.85
2336.00,99.83
2335.00,99.83
2334.00,99.83
2333.00,99.83
2332.00,99.83
2331.00,99.84
2330.00,99.85
2329.00,99.85
2328.00,99.86
2327.00,99.87
2326.00,99.88
2325.00,99.87
2324.00,99.87
2323.00,99.87
2322.00,99.87
2321.00,99.87
2320.00,99.86
2319.00,99.86
2318.00,99.85
2317.00,99.84
2316.00,99.84
2315.00,99.84
2314.00,99.84
2313.00,99.84
2312.00,99.83
2311.00,99.83
2310.00,99.83
2309.00,99.82
2308.00,99.82
2307.00,99.82
2306.00,99.82
2305.00,99.81
2304.00,99.81
2303.00,99.81
2302.00,99.81
2301.00,99.81
2300.00,99.80
2299.00,99.80
2298.00,99.79
2297.00,99.78
2296.00,99.77
2295.00,99.77
2294.00,99.77
2293.00,99.77
2292.00,99.77
2291.00,99.77
2290.00,99.76
2289.00,99.76
2288.00,99.75
2287.00,99.76
2286.00,99.76
2285.00,99.76
2284.00,99.76
2283.00,99.76
2282.00,99.75
2281.00,99.75
2280.00,99.75
2279.00,99.75
2278.00,99.75
2277.00,99.75
2276.00,99.75
2275.00,99.75
2274.00,99.75
2273.00,99.75
2272.00,99.75
2271.00,99.75
2270.00,99.76
2269.00,99.76
2268.00,99.76
2267.00,99.76
2266.00,99.76
2265.00,99.76
2264.00,99.76
2263.00,99.76
2262.00,99.75
2261.00,99.75
2260.00,99.74
2259.00,99.75
2258.00,99.75
2257.00,99.75
2256.00,99.74
2255.00,99.74
2254.00,99.75
2253.00,99.75
2252.00,99.75
2251.00,99.76
2250.00,99.76
2249.00,99.76
2248.00,99.76
2247.00,99.76
2246.00,99.76
2245.00,99.76
2244.00,99.75
2243.00,99.75
2242.00,99.76
2241.00,99.76
2240.00,99.76
2239.00,99.76
2238.00,99.76
2237.00,99.77
2236.00,99.77
2235.00,99.77
2234.00,99.77
2233.00,99.77
2232.00,99.76
2231.00,99.76
2230.00,99.76
2229.00,99.76
2228.00,99.76
2227.00,99.76
2226.00,99.76
2225.00,99.76
2224.00,99.76
2223.00,99.76
2222.00,99.76
2221.00,99.76
2220.00,99.76
2219.00,99.76
2218.00,99.77
2217.00,99.77
2216.00,99.76
2215.00,99.76
2214.00,99.76
2213.00,99.75
2212.00,99.75
2211.00,99.75
2210.00,99.75
2209.00,99.75
2208.00,99.75
2207.00,99.75
2206.00,99.76
2205.00,99.76
2204.00,99.76
2203.00,99.76
2202.00,99.75
2201.00,99.75
2200.00,99.74
2199.00,99.74
2198.00,99.75
2197.00,99.75
2196.00,99.76
2195.00,99.76
2194.00,99.76
2193.00,99.76
2192.00,99.76
2191.00,99.77
2190.00,99.77
2189.00,99.78
2188.00,99.78
2187.00,99.77
2186.00,99.77
2185.00,99.77
2184.00,99.76
2183.00,99.76
2182.00,99.76
2181.00,99.76
2180.00,99.76
2179.00,99.76
2178.00,99.76
2177.00,99.75
2176.00,99.75
2175.00,99.76
2174.00,99.76
2173.00,99.76
2172.00,99.75
2171.00,99.75
2170.00,99.76
2169.00,99.76
2168.00,99.76
2167.00,99.76
2166.00,99.77
2165.00,99.77
2164.00,99.77
2163.00,99.77
2162.00,99.77
2161.00,99.77
2160.00,99.76
2159.00,99.76
2158.00,99.76
2157.00,99.76
2156.00,99.76
2155.00,99.76
2154.00,99.77
2153.00,99.77
2152.00,99.76
2151.00,99.76
2150.00,99.77
2149.00,99.76
2148.00,99.76
2147.00,99.76
2146.00,99.77
2145.00,99.77
2144.00,99.77
2143.00,99.77
2142.00,99.77
2141.00,99.77
2140.00,99.77
2139.00,99.77
2138.00,99.77
2137.00,99.77
2136.00,99.76
2135.00,99.76
2134.00,99.77
2133.00,99.77
2132.00,99.77
2131.00,99.77
2130.00,99.77
2129.00,99.77
2128.00,99.77
2127.00,99.77
2126.00,99.77
2125.00,99.76
2124.00,99.75
2123.00,99.76
2122.00,99.77
2121.00,99.78
2120.00,99.78
2119.00,99.77
2118.00,99.77
2117.00,99.77
2116.00,99.77
2115.00,99.77
2114.00,99.78
2113.00,99.78
2112.00,99.77
2111.00,99.78
2110.00,99.78
2109.00,99.77
2108.00,99.77
2107.00,99.77
2106.00,99.77
2105.00,99.76
2104.00,99.76
2103.00,99.77
2102.00,99.78
2101.00,99.78
2100.00,99.77
2099.00,99.77
2098.00,99.77
2097.00,99.77
2096.00,99.77
2095.00,99.77
2094.00,99.78
2093.00,99.79
2092.00,99.78
2091.00,99.78
2090.00,99.78
2089.00,99.78
2088.00,99.77
2087.00,99.77
2086.00,99.78
2085.00,99.78
2084.00,99.77
2083.00,99.77
2082.00,99.78
2081.00,99.78
2080.00,99.78
2079.00,99.78
2078.00,99.79
2077.00,99.78
2076.00,99.77
2075.00,99.77
2074.00,99.78
2073.00,99.77
2072.00,99.77
2071.00,99.77
2070.00,99.78
2069.00,99.78
2068.00,99.77
2067.00,99.77
2066.00,99.77
2065.00,99.77
2064.00,99.77
2063.00,99.77
2062.00,99.78
2061.00,99.78
2060.00,99.78
2059.00,99.78
2058.00,99.79
2057.00,99.79
2056.00,99.78
2055.00,99.78
2054.00,99.78
2053.00,99.78
2052.00,99.77
2051.00,99.77
2050.00,99.77
2049.00,99.77
2048.00,99.77
2047.00,99.77
2046.00,99.78
2045.00,99.78
2044.00,99.78
2043.00,99.78
2042.00,99.78
2041.00,99.78
2040.00,99.78
2039.00,99.78
2038.00,99.78
2037.00,99.78
2036.00,99.78
2035.00,99.78
2034.00,99.79
2033.00,99.79
2032.00,99.78
2031.00,99.78
2030.00,99.78
2029.00,99.78
2028.00,99.77
2027.00,99.77
2026.00,99.78
2025.00,99.78
2024.00,99.78
2023.00,99.79
2022.00,99.79
2021.00,99.79
2020.00,99.78
2019.00,99.77
2018.00,99.78
2017.00,99.77
2016.00,99.77
2015.00,99.77
2014.00,99.78
2013.00,99.78
2012.00,99.78
2011.00,99.78
2010.00,99.78
2009.00,99.78
2008.00,99.78
2007.00,99.79
2006.00,99.79
2005.00,99.79
2004.00,99.79
2003.00,99.79
2002.00,99.79
2001.00,99.79
2000.00,99.78
1999.00,99.78
1998.00,99.79
1997.00,99.79
1996.00,99.78
1995.00,99.77
1994.00,99.76
1993.00,99.75
1992.00,99.75
1991.00,99.77
1990.00,99.78
1989.00,99.78
1988.00,99.78
1987.00,99.78
1986.00,99.79
1985.00,99.79
1984.00,99.79
1983.00,99.79
1982.00,99.78
1981.00,99.78
1980.00,99.78
1979.00,99.78
1978.00,99.78
1977.00,99.78
1976.00,99.79
1975.00,99.79
1974.00,99.79
1973.00,99.79
1972.00,99.79
1971.00,99.78
1970.00,99.77
1969.00,99.76
1968.00,99.76
1967.00,99.77
1966.00,99.78
1965.00,99.79
1964.00,99.79
1963.00,99.79
1962.00,99.79
1961.00,99.79
1960.00,99.79
1959.00,99.80
1958.00,99.79
1957.00,99.79
1956.00,99.79
1955.00,99.78
1954.00,99.78
1953.00,99.78
1952.00,99.78
1951.00,99.79
1950.00,99.80
1949.00,99.79
1948.00,99.79
1947.00,99.79
1946.00,99.77
1945.00,99.75
1944.00,99.74
1943.00,99.74
1942.00,99.76
1941.00,99.79
1940.00,99.81
1939.00,99.81
1938.00,99.80
1937.00,99.79
1936.00,99.79
1935.00,99.79
1934.00,99.79
1933.00,99.78
1932.00,99.78
1931.00,99.79
1930.00,99.79
1929.00,99.79
1928.00,99.78
1927.00,99.79
1926.00,99.79
1925.00,99.76
1924.00,99.75
1923.00,99.76
1922.00,99.79
1921.00,99.79
1920.00,99.78
1919.00,99.77
1918.00,99.78
1917.00,99.79
1916.00,99.80
1915.00,99.83
1914.00,99.84
1913.00,99.81
1912.00,99.78
1911.00,99.78
1910.00,99.77
1909.00,99.76
1908.00,99.75
1907.00,99.78
1906.00,99.80
1905.00,99.79
1904.00,99.78
1903.00,99.80
1902.00,99.82
1901.00,99.80
1900.00,99.78
1899.00,99.79
1898.00,99.81
1897.00,99.78
1896.00,99.76
1895.00,99.78
1894.00,99.81
1893.00,99.79
1892.00,99.75
1891.00,99.73
1890.00,99.73
1889.00,99.73
1888.00,99.75
1887.00,99.79
1886.00,99.82
1885.00,99.80
1884.00,99.79
1883.00,99.80
1882.00,99.82
1881.00,99.81
1880.00,99.79
1879.00,99.80
1878.00,99.83
1877.00,99.82
1876.00,99.80
1875.00,99.80
1874.00,99.83
1873.00,99.81
1872.00,99.76
1871.00,99.72
1870.00,99.70
1869.00,99.68
1868.00,99.68
1867.00,99.75
1866.00,99.82
1865.00,99.83
1864.00,99.81
1863.00,99.81
1862.00,99.83
1861.00,99.81
1860.00,99.77
1859.00,99.78
1858.00,99.80
1857.00,99.80
1856.00,99.78
1855.00,99.79
1854.00,99.81
1853.00,99.81
1852.00,99.80
1851.00,99.81
1850.00,99.82
1849.00,99.81
1848.00,99.79
1847.00,99.77
1846.00,99.75
1845.00,99.73
1844.00,99.75
1843.00,99.81
1842.00,99.86
1841.00,99.87
1840.00,99.85
1839.00,99.83
1838.00,99.82
1837.00,99.81
1836.00,99.80
1835.00,99.81
1834.00,99.81
1833.00,99.78
1832.00,99.72
1831.00,99.66
1830.00,99.65
1829.00,99.69
1828.00,99.74
1827.00,99.77
1826.00,99.80
1825.00,99.80
1824.00,99.80
1823.00,99.81
1822.00,99.83
1821.00,99.84
1820.00,99.80
1819.00,99.80
1818.00,99.83
1817.00,99.83
1816.00,99.80
1815.00,99.79
1814.00,99.81
1813.00,99.81
1812.00,99.77
1811.00,99.76
1810.00,99.81
1809.00,99.82
1808.00,99.79
1807.00,99.80
1806.00,99.83
1805.00,99.83
1804.00,99.79
1803.00,99.79
1802.00,99.82
1801.00,99.83
1800.00,99.80
1799.00,99.81
1798.00,99.86
1797.00,99.86
1796.00,99.85
1795.00,99.87
1794.00,99.93
1793.00,99.94
1792.00,99.88
1791.00,99.86
1790.00,99.89
1789.00,99.90
1788.00,99.87
1787.00,99.87
1786.00,99.90
1785.00,99.88
1784.00,99.84
1783.00,99.82
1782.00,99.82
1781.00,99.84
1780.00,99.84
1779.00,99.85
1778.00,99.86
1777.00,99.86
1776.00,99.86
1775.00,99.85
1774.00,99.86
1773.00,99.88
1772.00,99.86
1771.00,99.83
1770.00,99.86
1769.00,99.92
1768.00,99.93
1767.00,99.90
1766.00,99.89
1765.00,99.90
1764.00,99.87
1763.00,99.82
1762.00,99.80
1761.00,99.84
1760.00,99.85
1759.00,99.85
1758.00,99.85
1757.00,99.90
1756.00,99.95
1755.00,99.96
1754.00,100.01
1753.00,100.13
1752.00,100.21
1751.00,100.14
1750.00,100.02
1749.00,99.95
1748.00,99.92
1747.00,99.88
1746.00,99.85
1745.00,99.87
1744.00,99.88
1743.00,99.86
1742.00,99.87
1741.00,99.92
1740.00,99.93
1739.00,99.92
1738.00,99.93
1737.00,100.01
1736.00,100.14
1735.00,100.25
1734.00,100.25
1733.00,100.15
1732.00,100.03
1731.00,99.97
1730.00,99.92
1729.00,99.89
1728.00,99.87
1727.00,99.86
1726.00,99.86
1725.00,99.85
1724.00,99.84
1723.00,99.87
1722.00,99.91
1721.00,99.88
1720.00,99.80
1719.00,99.81
1718.00,99.94
1717.00,99.97
1716.00,99.91
1715.00,99.94
1714.00,100.02
1713.00,99.98
1712.00,99.89
1711.00,99.88
1710.00,99.93
1709.00,99.91
1708.00,99.83
1707.00,99.80
1706.00,99.84
1705.00,99.84
1704.00,99.82
1703.00,99.90
1702.00,100.08
1701.00,100.14
1700.00,100.03
1699.00,99.96
1698.00,99.95
1697.00,99.87
1696.00,99.75
1695.00,99.74
1694.00,99.85
1693.00,99.93
1692.00,99.92
1691.00,99.89
1690.00,99.90
1689.00,99.93
1688.00,99.92
1687.00,99.84
1686.00,99.74
1685.00,99.69
1684.00,99.73
1683.00,99.80
1682.00,99.83
1681.00,99.87
1680.00,99.92
1679.00,99.93
1678.00,99.91
1677.00,99.93
1676.00,99.98
1675.00,99.96
1674.00,99.88
1673.00,99.86
1672.00,99.89
1671.00,99.90
1670.00,99.85
1669.00,99.82
1668.00,99.86
1667.00,99.88
1666.00,99.85
1665.00,99.83
1664.00,99.85
1663.00,99.87
1662.00,99.83
1661.00,99.85
1660.00,99.91
1659.00,99.93
1658.00,99.87
1657.00,99.84
1656.00,99.83
1655.00,99.81
1654.00,99.78
1653.00,99.75
1652.00,99.73
1651.00,99.75
1650.00,99.81
1649.00,99.84
1648.00,99.87
1647.00,99.91
1646.00,99.95
1645.00,99.95
1644.00,99.94
1643.00,99.94
1642.00,99.94
1641.00,99.93
1640.00,99.91
1639.00,99.87
1638.00,99.86
1637.00,99.89
1636.00,99.91
1635.00,99.88
1634.00,99.86
1633.00,99.87
1632.00,99.89
1631.00,99.91
1630.00,99.90
1629.00,99.85
1628.00,99.83
1627.00,99.84
1626.00,99.83
1625.00,99.83
1624.00,99.85
1623.00,99.86
1622.00,99.83
1621.00,99.81
1620.00,99.85
1619.00,99.88
1618.00,99.86
1617.00,99.83
1616.00,99.85
1615.00,99.87
1614.00,99.85
1613.00,99.83
1612.00,99.86
1611.00,99.89
1610.00,99.84
1609.00,99.80
1608.00,99.83
1607.00,99.85
1606.00,99.81
1605.00,99.80
1604.00,99.84
1603.00,99.85
1602.00,99.81
1601.00,99.80
1600.00,99.84
1599.00,99.85
1598.00,99.81
1597.00,99.79
1596.00,99.81
1595.00,99.82
1594.00,99.79
1593.00,99.79
1592.00,99.82
1591.00,99.85
1590.00,99.82
1589.00,99.80
1588.00,99.81
1587.00,99.83
1586.00,99.80
1585.00,99.78
1584.00,99.82
1583.00,99.84
1582.00,99.78
1581.00,99.74
1580.00,99.75
1579.00,99.73
1578.00,99.67
1577.00,99.67
1576.00,99.75
1575.00,99.80
1574.00,99.78
1573.00,99.78
1572.00,99.81
1571.00,99.81
1570.00,99.75
1569.00,99.78
1568.00,99.90
1567.00,99.96
1566.00,99.91
1565.00,99.90
1564.00,99.94
1563.00,99.93
1562.00,99.84
1561.00,99.86
1560.00,100.01
1559.00,100.02
1558.00,99.92
1557.00,99.91
1556.00,100.03
1555.00,100.10
1554.00,100.09
1553.00,100.07
1552.00,100.07
1551.00,100.03
1550.00,99.98
1549.00,99.99
1548.00,100.05
1547.00,100.08
1546.00,100.03
1545.00,99.96
1544.00,99.93
1543.00,99.94
1542.00,99.98
1541.00,100.01
1540.00,100.00
1539.00,99.95
1538.00,99.89
1537.00,99.86
1536.00,99.87
1535.00,99.87
1534.00,99.85
1533.00,99.85
1532.00,99.86
1531.00,99.89
1530.00,99.92
1529.00,99.91
1528.00,99.89
1527.00,99.93
1526.00,99.97
1525.00,99.99
1524.00,99.96
1523.00,99.93
1522.00,99.90
1521.00,99.87
1520.00,99.84
1519.00,99.85
1518.00,99.87
1517.00,99.89
1516.00,99.90
1515.00,99.93
1514.00,99.99
1513.00,100.03
1512.00,99.99
1511.00,99.94
1510.00,99.98
1509.00,100.08
1508.00,100.15
1507.00,100.17
1506.00,100.16
1505.00,100.12
1504.00,100.03
1503.00,99.95
1502.00,99.92
1501.00,99.90
1500.00,99.84
1499.00,99.81
1498.00,99.90
1497.00,100.01
1496.00,100.00
1495.00,99.97
1494.00,99.99
1493.00,100.01
1492.00,99.97
1491.00,99.95
1490.00,99.96
1489.00,99.92
1488.00,99.84
1487.00,99.84
1486.00,99.88
1485.00,99.87
1484.00,99.84
1483.00,99.84
1482.00,99.87
1481.00,99.87
1480.00,99.86
1479.00,99.87
1478.00,99.90
1477.00,99.90
1476.00,99.92
1475.00,100.02
1474.00,100.15
1473.00,100.18
1472.00,100.10
1471.00,100.02
1470.00,99.98
1469.00,99.93
1468.00,99.88
1467.00,99.87
1466.00,99.89
1465.00,99.93
1464.00,99.94
1463.00,99.93
1462.00,99.93
1461.00,99.92
1460.00,99.89
1459.00,99.87
1458.00,99.96
1457.00,100.09
1456.00,100.13
1455.00,100.05
1454.00,99.99
1453.00,99.97
1452.00,99.95
1451.00,99.91
1450.00,99.91
1449.00,99.93
1448.00,99.91
1447.00,99.85
1446.00,99.82
1445.00,99.87
1444.00,99.89
1443.00,99.85
1442.00,99.83
1441.00,99.89
1440.00,99.92
1439.00,99.88
1438.00,99.89
1437.00,99.97
1436.00,99.99
1435.00,99.92
1434.00,99.88
1433.00,99.91
1432.00,99.90
1431.00,99.82
1430.00,99.79
1429.00,99.84
1428.00,99.89
1427.00,99.87
1426.00,99.85
1425.00,99.91
1424.00,99.96
1423.00,99.90
1422.00,99.83
1421.00,99.85
1420.00,99.87
1419.00,99.83
1418.00,99.85
1417.00,99.95
1416.00,99.99
1415.00,99.92
1414.00,99.85
1413.00,99.87
1412.00,99.90
1411.00,99.86
1410.00,99.83
1409.00,99.86
1408.00,99.89
1407.00,99.85
1406.00,99.80
1405.00,99.82
1404.00,99.87
1403.00,99.86
1402.00,99.83
1401.00,99.86
1400.00,99.90
1399.00,99.89
1398.00,99.87
1397.00,99.87
1396.00,99.87
1395.00,99.83
1394.00,99.80
1393.00,99.84
1392.00,99.89
1391.00,99.86
1390.00,99.81
1389.00,99.80
1388.00,99.83
1387.00,99.83
1386.00,99.83
1385.00,99.84
1384.00,99.85
1383.00,99.84
1382.00,99.82
1381.00,99.83
1380.00,99.85
1379.00,99.85
1378.00,99.83
1377.00,99.81
1376.00,99.81
1375.00,99.80
1374.00,99.79
1373.00,99.79
1372.00,99.82
1371.00,99.84
1370.00,99.82
1369.00,99.82
1368.00,99.84
1367.00,99.85
1366.00,99.82
1365.00,99.80
1364.00,99.79
1363.00,99.78
1362.00,99.79
1361.00,99.81
1360.00,99.84
1359.00,99.84
1358.00,99.83
1357.00,99.82
1356.00,99.82
1355.00,99.82
1354.00,99.81
1353.00,99.82
1352.00,99.82
1351.00,99.81
1350.00,99.80
1349.00,99.80
1348.00,99.81
1347.00,99.81
1346.00,99.80
1345.00,99.81
1344.00,99.83
1343.00,99.84
1342.00,99.84
1341.00,99.84
1340.00,99.86
1339.00,99.85
1338.00,99.83
1337.00,99.82
1336.00,99.83
1335.00,99.83
1334.00,99.82
1333.00,99.82
1332.00,99.83
1331.00,99.82
1330.00,99.80
1329.00,99.80
1328.00,99.81
1327.00,99.81
1326.00,99.79
1325.00,99.80
1324.00,99.82
1323.00,99.82
1322.00,99.81
1321.00,99.80
1320.00,99.81
1319.00,99.81
1318.00,99.80
1317.00,99.82
1316.00,99.83
1315.00,99.83
1314.00,99.82
1313.00,99.82
1312.00,99.82
1311.00,99.81
1310.00,99.80
1309.00,99.81
1308.00,99.83
1307.00,99.84
1306.00,99.84
1305.00,99.85
1304.00,99.86
1303.00,99.85
1302.00,99.82
1301.00,99.82
1300.00,99.82
1299.00,99.80
1298.00,99.79
1297.00,99.80
1296.00,99.81
1295.00,99.81
1294.00,99.79
1293.00,99.80
1292.00,99.81
1291.00,99.81
1290.00,99.80
1289.00,99.81
1288.00,99.82
1287.00,99.81
1286.00,99.80
1285.00,99.80
1284.00,99.82
1283.00,99.81
1282.00,99.79
1281.00,99.79
1280.00,99.80
1279.00,99.79
1278.00,99.78
1277.00,99.78
1276.00,99.80
1275.00,99.80
1274.00,99.79
1273.00,99.79
1272.00,99.81
1271.00,99.80
1270.00,99.79
1269.00,99.79
1268.00,99.80
1267.00,99.80
1266.00,99.79
1265.00,99.79
1264.00,99.80
1263.00,99.78
1262.00,99.77
1261.00,99.77
1260.00,99.78
1259.00,99.78
1258.00,99.77
1257.00,99.78
1256.00,99.78
1255.00,99.77
1254.00,99.76
1253.00,99.77
1252.00,99.78
1251.00,99.78
1250.00,99.77
1249.00,99.78
1248.00,99.79
1247.00,99.78
1246.00,99.75
1245.00,99.75
1244.00,99.76
1243.00,99.77
1242.00,99.76
1241.00,99.77
1240.00,99.77
1239.00,99.76
1238.00,99.74
1237.00,99.74
1236.00,99.75
1235.00,99.74
1234.00,99.72
1233.00,99.73
1232.00,99.74
1231.00,99.74
1230.00,99.74
1229.00,99.74
1228.00,99.76
1227.00,99.76
1226.00,99.75
1225.00,99.76
1224.00,99.77
1223.00,99.76
1222.00,99.75
1221.00,99.75
1220.00,99.76
1219.00,99.76
1218.00,99.74
1217.00,99.75
1216.00,99.75
1215.00,99.74
1214.00,99.72
1213.00,99.72
1212.00,99.73
1211.00,99.73
1210.00,99.72
1209.00,99.73
1208.00,99.74
1207.00,99.73
1206.00,99.71
1205.00,99.71
1204.00,99.72
1203.00,99.71
1202.00,99.70
1201.00,99.70
1200.00,99.70
1199.00,99.70
1198.00,99.69
1197.00,99.69
1196.00,99.70
1195.00,99.69
1194.00,99.68
1193.00,99.69
1192.00,99.70
1191.00,99.69
1190.00,99.67
1189.00,99.68
1188.00,99.68
1187.00,99.67
1186.00,99.66
1185.00,99.67
1184.00,99.68
1183.00,99.68
1182.00,99.67
1181.00,99.68
1180.00,99.69
1179.00,99.68
1178.00,99.66
1177.00,99.66
1176.00,99.67
1175.00,99.66
1174.00,99.65
1173.00,99.66
1172.00,99.67
1171.00,99.67
1170.00,99.65
1169.00,99.65
1168.00,99.66
1167.00,99.65
1166.00,99.64
1165.00,99.65
1164.00,99.67
1163.00,99.67
1162.00,99.67
1161.00,99.69
1160.00,99.70
1159.00,99.68
1158.00,99.66
1157.00,99.65
1156.00,99.65
1155.00,99.64
1154.00,99.62
1153.00,99.64
1152.00,99.66
1151.00,99.67
1150.00,99.66
1149.00,99.67
1148.00,99.69
1147.00,99.68
1146.00,99.66
1145.00,99.64
1144.00,99.62
1143.00,99.60
1142.00,99.58
1141.00,99.60
1140.00,99.64
1139.00,99.65
1138.00,99.65
1137.00,99.65
1136.00,99.66
1135.00,99.64
1134.00,99.62
1133.00,99.62
1132.00,99.64
1131.00,99.64
1130.00,99.62
1129.00,99.61
1128.00,99.62
1127.00,99.60
1126.00,99.59
1125.00,99.60
1124.00,99.61
1123.00,99.59
1122.00,99.57
1121.00,99.57
1120.00,99.58
1119.00,99.58
1118.00,99.56
1117.00,99.57
1116.00,99.58
1115.00,99.56
1114.00,99.54
1113.00,99.54
1112.00,99.55
1111.00,99.54
1110.00,99.52
1109.00,99.54
1108.00,99.56
1107.00,99.55
1106.00,99.53
1105.00,99.53
1104.00,99.54
1103.00,99.52
1102.00,99.50
1101.00,99.52
1100.00,99.54
1099.00,99.54
1098.00,99.52
1097.00,99.53
1096.00,99.54
1095.00,99.53
1094.00,99.50
1093.00,99.49
1092.00,99.49
1091.00,99.45
1090.00,99.42
1089.00,99.42
1088.00,99.44
1087.00,99.44
1086.00,99.44
1085.00,99.46
1084.00,99.49
1083.00,99.47
1082.00,99.44
1081.00,99.43
1080.00,99.45
1079.00,99.42
1078.00,99.39
1077.00,99.40
1076.00,99.43
1075.00,99.43
1074.00,99.43
1073.00,99.45
1072.00,99.47
1071.00,99.45
1070.00,99.42
1069.00,99.43
1068.00,99.46
1067.00,99.46
1066.00,99.44
1065.00,99.47
1064.00,99.50
1063.00,99.48
1062.00,99.42
1061.00,99.41
1060.00,99.41
1059.00,99.39
1058.00,99.36
1057.00,99.35
1056.00,99.36
1055.00,99.34
1054.00,99.32
1053.00,99.36
1052.00,99.41
1051.00,99.41
1050.00,99.37
1049.00,99.35
1048.00,99.33
1047.00,99.29
1046.00,99.25
1045.00,99.27
1044.00,99.32
1043.00,99.35
1042.00,99.36
1041.00,99.39
1040.00,99.42
1039.00,99.40
1038.00,99.38
1037.00,99.42
1036.00,99.46
1035.00,99.42
1034.00,99.34
1033.00,99.31
1032.00,99.29
1031.00,99.25
1030.00,99.21
1029.00,99.24
1028.00,99.31
1027.00,99.33
1026.00,99.31
1025.00,99.33
1024.00,99.36
1023.00,99.34
1022.00,99.30
1021.00,99.29
1020.00,99.28
1019.00,99.23
1018.00,99.20
1017.00,99.26
1016.00,99.33
1015.00,99.32
1014.00,99.25
1013.00,99.24
1012.00,99.27
1011.00,99.26
1010.00,99.24
1009.00,99.26
1008.00,99.28
1007.00,99.22
1006.00,99.13
1005.00,99.10
1004.00,99.12
1003.00,99.07
1002.00,99.02
1001.00,99.06
1000.00,99.16
999.00,99.21
998.00,99.21
997.00,99.25
996.00,99.29
995.00,99.24
994.00,99.14
993.00,99.11
992.00,99.15
991.00,99.17
990.00,99.20
989.00,99.30
988.00,99.38
987.00,99.30
986.00,99.18
985.00,99.15
984.00,99.19
983.00,99.18
982.00,99.11
981.00,99.10
980.00,99.07
979.00,98.94
978.00,98.82
977.00,98.88
976.00,99.05
975.00,99.13
974.00,99.12
973.00,99.17
972.00,99.24
971.00,99.18
970.00,99.04
969.00,98.99
968.00,98.98
967.00,98.89
966.00,98.79
965.00,98.85
964.00,98.99
963.00,99.04
962.00,99.03
961.00,99.12
960.00,99.22
959.00,99.15
958.00,99.06
957.00,99.14
956.00,99.26
955.00,99.19
954.00,99.04
953.00,99.08
952.00,99.21
951.00,99.14
950.00,98.98
949.00,98.99
948.00,99.06
947.00,98.93
946.00,98.76
945.00,98.81
944.00,98.89
943.00,98.70
942.00,98.52
941.00,98.76
940.00,99.09
939.00,98.83
938.00,98.15
937.00,97.83
936.00,98.13
935.00,98.69
934.00,99.33
933.00,100.08
932.00,100.55
931.00,100.34
930.00,99.94
929.00,100.00
928.00,100.03
927.00,99.26
926.00,98.16
925.00,97.73
924.00,97.78
923.00,97.45
922.00,97.05
921.00,97.40
920.00,98.21
919.00,98.51
918.00,98.51
917.00,99.06
916.00,99.50
915.00,98.68
914.00,97.32
913.00,97.03
912.00,97.54
911.00,97.54
910.00,97.46
909.00,98.63
908.00,100.43
907.00,101.20
906.00,101.39
905.00,102.69
904.00,103.83
903.00,102.53
902.00,100.89
901.00,102.01
900.00,103.81
899.00,102.18
898.00,98.64
897.00,97.17
896.00,96.26
895.00,92.81
894.00,89.34
893.00,89.59
892.00,93.33
891.00,97.11
890.00,99.13
889.00,103.56
888.00,106.40
887.00,98.53
886.00,89.44
885.00,89.72
884.00,95.61
883.00,98.46
882.00,98.81
881.00,104.12
880.00,111.65
879.00,110.89
878.00,108.62
877.00,123.48
876.00,152.57
875.00,167.67
874.00,155.96
873.00,181.99
872.00,216.44
871.00,159.65
870.00,108.69
869.00,110.93
868.00,139.08
867.00,147.56
866.00,122.74
865.00,128.84
864.00,132.28
863.00,112.30
862.00,98.88
861.00,88.01
860.00,120.72
859.00,131.82
858.00,132.15
857.00,287.48
856.00,189.12
855.00,247.72
854.00,145.98
853.00,72.22
852.00,62.50
851.00,111.56
850.00,250.39
849.00,439.07
848.00,101.68
847.00,53.46
846.00,146.27
845.00,182.42
844.00,109.19
843.00,200.08
842.00,110.10
841.00,33.92
840.00,26.14
839.00,12.23
838.00,14.76
837.00,57.36
836.00,140.11
835.00,56.60
834.00,26.36
833.00,64.16
832.00,104.87
831.00,64.03
830.00,25.69
829.00,57.10
828.00,196.50
827.00,27.09
826.00,39.80
825.00,101.47
824.00,82.16
823.00,70.48
822.00,36.28
821.00,67.87
820.00,76.69
819.00,149.10
818.00,184.26
817.00,290.69
816.00,491.55
815.00,159.78
814.00,34.57
813.00,121.45
812.00,115.07
811.00,29.96
810.00,3.15
809.00,66.38
808.00,165.76
807.00,95.55
806.00,38.00
805.00,123.64
804.00,81.94
803.00,44.99
802.00,55.60
801.00,56.83
800.00,47.60
799.00,102.52
798.00,212.32
797.00,123.40
796.00,158.16
795.00,51.41
794.00,6.12
793.00,55.51
792.00,154.53
791.00,64.06
790.00,40.08
789.00,59.31
788.00,39.74
787.00,24.06
786.00,29.29
785.00,80.67
784.00,136.68
783.00,74.58
782.00,10.22
781.00,92.03
780.00,87.52
779.00,71.67
778.00,32.31
777.00,40.86
776.00,80.40
775.00,59.30
774.00,79.21
773.00,328.63
772.00,123.91
771.00,100.11
770.00,18.86
769.00,89.88
768.00,212.68
767.00,161.77
766.00,107.41
765.00,94.07
764.00,64.00
763.00,33.89
762.00,22.16
761.00,71.31
760.00,88.52
759.00,70.60
758.00,66.50
757.00,114.23
756.00,97.45
755.00,54.04
754.00,25.94
753.00,52.42
752.00,70.98
751.00,59.63
750.00,106.80
749.00,210.16
748.00,162.12
747.00,118.97
746.00,65.18
745.00,213.98
744.00,67.72
743.00,78.80
742.00,319.02
741.00,171.57
740.00,78.17
739.00,65.10
738.00,17.83
737.00,89.91
736.00,54.64
735.00,33.75
734.00,101.10
733.00,45.05
732.00,33.40
731.00,67.86
730.00,16.92
729.00,80.60
728.00,182.49
727.00,65.03
726.00,58.33
725.00,188.08
724.00,136.92
723.00,83.30
722.00,44.44
721.00,124.69
720.00,373.51
719.00,252.33
718.00,103.67
717.00,323.72
716.00,100.09
715.00,105.24
714.00,175.55
713.00,275.96
712.00,197.12
711.00,169.14
710.00,86.02
709.00,90.40
708.00,212.77
707.00,83.43
706.00,39.29
705.00,51.69
704.00,34.49
703.00,27.22
702.00,64.15
701.00,97.77
700.00,95.57
699.00,164.89
698.00,210.95
697.00,130.56
696.00,85.50
695.00,142.09
694.00,102.77
693.00,96.00
692.00,82.40
691.00,67.02
690.00,83.68
689.00,63.89
688.00,14.02
687.00,7.80
686.00,29.20
685.00,33.36
684.00,112.42
683.00,64.44
682.00,45.44
681.00,137.27
680.00,120.07
679.00,61.51
678.00,15.15
677.00,57.62
676.00,67.80
675.00,209.65
674.00,438.87
673.00,138.74
672.00,67.25
671.00,104.13
670.00,162.17
669.00,98.51
668.00,81.91
667.00,149.85
666.00,37.54
665.00,149.30
664.00,55.52
663.00,31.70
662.00,95.14
661.00,79.88
660.00,57.30
659.00,106.50
658.00,623.40
657.00,352.22
656.00,203.08
655.00,226.39
654.00,96.53
653.00,85.92
652.00,30.23
651.00,16.62
650.00,62.62
649.00,36.77
648.00,19.33
647.00,57.78
646.00,109.85
645.00,140.77
644.00,112.47
643.00,95.64
642.00,47.89
641.00,29.32
640.00,59.11
639.00,31.24
638.00,35.25
637.00,68.42
636.00,109.29
635.00,54.73
634.00,30.61
633.00,114.90
632.00,107.34
631.00,48.93
630.00,33.76
629.00,73.61
628.00,109.87
627.00,61.43
626.00,50.66
625.00,92.63
624.00,130.58
623.00,119.26
622.00,78.82
621.00,312.25
620.00,113.88
619.00,49.58
618.00,43.33
617.00,55.53
616.00,56.30
615.00,24.87
614.00,35.85
613.00,100.48
612.00,117.58
611.00,130.57
610.00,411.74
609.00,224.70
608.00,138.68
607.00,83.09
606.00,20.01
605.00,39.42
604.00,91.78
603.00,38.13
602.00,44.56
601.00,97.72
600.00,77.48
599.00,40.54
598.00,34.92
597.00,61.06
596.00,84.36
595.00,90.15
594.00,88.24
593.00,210.96
592.00,143.52
591.00,310.87
590.00,93.08
589.00,112.14
588.00,190.60
587.00,96.03
586.00,46.15
585.00,109.35
584.00,123.57
583.00,159.90
582.00,88.46
581.00,389.19
580.00,264.62
579.00,475.98
578.00,147.87
577.00,245.31
576.00,264.75
575.00,591.76
574.00,128.66
573.00,247.28
572.00,787.52
571.00,97.12
570.00,-27.28
569.00,84.34
568.00,1059.24
567.00,105.40
566.00,12.49
565.00,110.88
564.00,169.62
563.00,113.07
562.00,129.35
561.00,663.98
560.00,130.51
559.00,166.41
558.00,101.93
557.00,42.20
556.00,40.69
555.00,31.82
554.00,81.52
553.00,7.65
552.00,63.19
551.00,81.30
550.00,97.51
549.00,176.74
548.00,119.17
547.00,153.19
546.00,100.83
545.00,184.45
544.00,187.36
543.00,65.77
542.00,39.96
541.00,51.93
540.00,76.06
539.00,47.33
538.00,48.92
537.00,167.92
536.00,82.49
535.00,45.57
534.00,47.64
533.00,61.41
532.00,91.40
531.00,70.78
530.00,9.23
529.00,29.36
528.00,188.93
527.00,71.51
526.00,46.51
525.00,154.41
524.00,116.56
523.00,113.12
522.00,67.82
521.00,98.56
520.00,163.19
519.00,46.48
518.00,21.92
517.00,89.03
516.00,135.23
515.00,54.69
514.00,13.49
513.00,26.84
512.00,52.84
511.00,31.95
510.00,33.52
509.00,176.07
508.00,67.19
507.00,78.61
506.00,86.63
505.00,32.32
504.00,136.66
503.00,136.46
502.00,61.48
501.00,56.78
500.00,33.33
499.00,22.51
498.00,38.03
497.00,35.17
496.00,38.81
495.00,22.38
494.00,50.20
493.00,67.57
492.00,71.36
491.00,84.05
490.00,121.99
489.00,154.99
488.00,54.21
487.00,78.20
486.00,95.08
485.00,44.28
484.00,22.06
483.00,56.04
482.00,608.73
481.00,200.97
480.00,97.93
479.00,105.21
478.00,74.70
477.00,227.90
476.00,138.25
475.00,49.69
474.00,5.83
473.00,30.69
472.00,105.98
471.00,35.97
470.00,6.15
469.00,85.56
468.00,498.56
467.00,88.95
466.00,16.16
465.00,50.56
464.00,88.53
463.00,52.14
462.00,37.28
461.00,75.68
460.00,137.75
459.00,43.07
458.00,7.04
457.00,89.65
456.00,154.22
455.00,70.68
454.00,36.82
453.00,53.90
452.00,67.58
451.00,44.90
450.00,99.93
