Created as New Dataset,Sample 002 By Administrator Date Thursday, October 16 2025
cm-1,%T
4000.00,99.81
3999.00,99.81
3998.00,99.79
3997.00,99.77
3996.00,99.77
3995.00,99.79
3994.00,99.81
3993.00,99.82
3992.00,99.82
3991.00,99.81
3990.00,99.82
3989.00,99.84
3988.00,99.86
3987.00,99.84
3986.00,99.81
3985.00,99.78
3984.00,99.76
3983.00,99.75
3982.00,99.77
3981.00,99.80
3980.00,99.84
3979.00,99.85
3978.00,99.82
3977.00,99.78
3976.00,99.74
3975.00,99.72
3974.00,99.73
3973.00,99.75
3972.00,99.78
3971.00,99.81
3970.00,99.82
3969.00,99.83
3968.00,99.85
3967.00,99.87
3966.00,99.86
3965.00,99.81
3964.00,99.74
3963.00,99.70
3962.00,99.72
3961.00,99.78
3960.00,99.82
3959.00,99.81
3958.00,99.78
3957.00,99.77
3956.00,99.77
3955.00,99.78
3954.00,99.79
3953.00,99.80
3952.00,99.79
3951.00,99.76
3950.00,99.75
3949.00,99.79
3948.00,99.90
3947.00,100.03
3946.00,100.06
3945.00,99.97
3944.00,99.84
3943.00,99.81
3942.00,99.89
3941.00,99.97
3940.00,99.97
3939.00,99.90
3938.00,99.88
3937.00,99.90
3936.00,99.90
3935.00,99.83
3934.00,99.71
3933.00,99.62
3932.00,99.59
3931.00,99.65
3930.00,99.79
3929.00,99.93
3928.00,99.99
3927.00,99.90
3926.00,99.75
3925.00,99.74
3924.00,99.92
3923.00,100.19
3922.00,100.35
3921.00,100.31
3920.00,100.09
3919.00,99.82
3918.00,99.62
3917.00,99.59
3916.00,99.74
3915.00,99.91
3914.00,99.99
3913.00,99.96
3912.00,99.92
3911.00,99.96
3910.00,100.06
3909.00,100.14
3908.00,100.20
3907.00,100.30
3906.00,100.51
3905.00,100.77
3904.00,100.94
3903.00,100.94
3902.00,100.77
3901.00,100.48
3900.00,100.22
3899.00,100.10
3898.00,100.12
3897.00,100.20
3896.00,100.22
3895.00,100.21
3894.00,100.25
3893.00,100.39
3892.00,100.56
3891.00,100.69
3890.00,100.70
3889.00,100.60
3888.00,100.42
3887.00,100.28
3886.00,100.27
3885.00,100.34
3884.00,100.33
3883.00,100.12
3882.00,99.78
3881.00,99.61
3880.00,99.83
3879.00,100.27
3878.00,100.55
3877.00,100.47
3876.00,100.19
3875.00,100.04
3874.00,100.22
3873.00,100.59
3872.00,100.89
3871.00,100.99
3870.00,100.96
3869.00,100.94
3868.00,100.96
3867.00,100.90
3866.00,100.75
3865.00,100.58
3864.00,100.52
3863.00,100.54
3862.00,100.59
3861.00,100.58
3860.00,100.45
3859.00,100.12
3858.00,99.57
3857.00,98.98
3856.00,98.73
3855.00,98.96
3854.00,99.20
3853.00,99.22
3852.00,99.28
3851.00,99.47
3850.00,99.68
3849.00,99.89
3848.00,100.08
3847.00,100.16
3846.00,100.13
3845.00,100.16
3844.00,100.35
3843.00,100.58
3842.00,100.70
3841.00,100.72
3840.00,100.85
3839.00,101.07
3838.00,101.18
3837.00,101.11
3836.00,101.02
3835.00,101.00
3834.00,101.00
3833.00,100.92
3832.00,100.75
3831.00,100.54
3830.00,100.30
3829.00,100.04
3828.00,99.85
3827.00,99.85
3826.00,100.08
3825.00,100.43
3824.00,100.78
3823.00,101.02
3822.00,101.03
3821.00,100.85
3820.00,100.69
3819.00,100.58
3818.00,100.45
3817.00,100.23
3816.00,99.94
3815.00,99.79
3814.00,99.86
3813.00,100.04
3812.00,100.20
3811.00,100.33
3810.00,100.47
3809.00,100.64
3808.00,100.79
3807.00,100.83
3806.00,100.78
3805.00,100.68
3804.00,100.56
3803.00,100.49
3802.00,100.37
3801.00,100.18
3800.00,100.02
3799.00,99.94
3798.00,99.91
3797.00,99.94
3796.00,100.02
3795.00,100.09
3794.00,100.08
3793.00,100.00
3792.00,99.91
3791.00,99.88
3790.00,99.88
3789.00,99.83
3788.00,99.66
3787.00,99.43
3786.00,99.29
3785.00,99.40
3784.00,99.70
3783.00,99.93
3782.00,99.91
3781.00,99.70
3780.00,99.56
3779.00,99.65
3778.00,99.87
3777.00,100.03
3776.00,100.08
3775.00,100.09
3774.00,100.10
3773.00,100.07
3772.00,100.03
3771.00,100.05
3770.00,100.19
3769.00,100.37
3768.00,100.43
3767.00,100.33
3766.00,100.19
3765.00,100.16
3764.00,100.25
3763.00,100.32
3762.00,100.30
3761.00,100.23
3760.00,100.23
3759.00,100.32
3758.00,100.44
3757.00,100.46
3756.00,100.29
3755.00,99.98
3754.00,99.73
3753.00,99.67
3752.00,99.74
3751.00,99.76
3750.00,99.77
3749.00,99.78
3748.00,99.67
3747.00,99.36
3746.00,99.04
3745.00,98.83
3744.00,98.85
3743.00,99.19
3742.00,99.64
3741.00,99.97
3740.00,100.29
3739.00,100.74
3738.00,101.23
3737.00,101.51
3736.00,101.49
3735.00,101.32
3734.00,101.11
3733.00,100.83
3732.00,100.52
3731.00,100.30
3730.00,100.23
3729.00,100.23
3728.00,100.23
3727.00,100.22
3726.00,100.19
3725.00,100.13
3724.00,100.06
3723.00,100.02
3722.00,100.03
3721.00,100.03
3720.00,100.01
3719.00,100.02
3718.00,100.14
3717.00,100.32
3716.00,100.44
3715.00,100.44
3714.00,100.39
3713.00,100.34
3712.00,100.30
3711.00,100.29
3710.00,100.28
3709.00,100.24
3708.00,100.15
3707.00,100.08
3706.00,100.06
3705.00,100.08
3704.00,100.08
3703.00,100.04
3702.00,100.01
3701.00,100.04
3700.00,100.06
3699.00,99.98
3698.00,99.83
3697.00,99.75
3696.00,99.81
3695.00,99.93
3694.00,100.00
3693.00,100.00
3692.00,100.08
3691.00,100.33
3690.00,100.57
3689.00,100.54
3688.00,100.24
3687.00,99.96
3686.00,99.83
3685.00,99.85
3684.00,99.94
3683.00,100.01
3682.00,100.01
3681.00,100.05
3680.00,100.27
3679.00,100.69
3678.00,101.18
3677.00,101.42
3676.00,101.21
3675.00,100.92
3674.00,100.98
3673.00,101.29
3672.00,101.51
3671.00,101.38
3670.00,100.94
3669.00,100.52
3668.00,100.32
3667.00,100.22
3666.00,100.11
3665.00,99.99
3664.00,99.90
3663.00,99.85
3662.00,99.86
3661.00,99.95
3660.00,100.15
3659.00,100.39
3658.00,100.58
3657.00,100.66
3656.00,100.70
3655.00,100.80
3654.00,100.99
3653.00,101.32
3652.00,101.90
3651.00,102.58
3650.00,102.74
3649.00,102.05
3648.00,100.99
3647.00,100.24
3646.00,99.96
3645.00,99.87
3644.00,99.73
3643.00,99.57
3642.00,99.50
3641.00,99.51
3640.00,99.51
3639.00,99.52
3638.00,99.61
3637.00,99.77
3636.00,99.89
3635.00,99.95
3634.00,100.03
3633.00,100.12
3632.00,100.26
3631.00,100.47
3630.00,100.67
3629.00,100.61
3628.00,100.32
3627.00,100.04
3626.00,99.89
3625.00,99.88
3624.00,99.98
3623.00,100.18
3622.00,100.47
3621.00,100.77
3620.00,100.89
3619.00,100.73
3618.00,100.38
3617.00,100.04
3616.00,99.79
3615.00,99.73
3614.00,99.89
3613.00,100.19
3612.00,100.39
3611.00,100.32
3610.00,100.03
3609.00,99.72
3608.00,99.58
3607.00,99.62
3606.00,99.73
3605.00,99.71
3604.00,99.50
3603.00,99.16
3602.00,98.88
3601.00,98.81
3600.00,98.96
3599.00,99.21
3598.00,99.45
3597.00,99.63
3596.00,99.73
3595.00,99.78
3594.00,99.84
3593.00,99.94
3592.00,99.99
3591.00,99.92
3590.00,99.75
3589.00,99.61
3588.00,99.63
3587.00,99.75
3586.00,99.84
3585.00,99.82
3584.00,99.71
3583.00,99.59
3582.00,99.51
3581.00,99.47
3580.00,99.43
3579.00,99.38
3578.00,99.34
3577.00,99.31
3576.00,99.32
3575.00,99.38
3574.00,99.52
3573.00,99.70
3572.00,99.88
3571.00,99.99
3570.00,99.98
3569.00,99.82
3568.00,99.61
3567.00,99.46
3566.00,99.47
3565.00,99.55
3564.00,99.61
3563.00,99.59
3562.00,99.55
3561.00,99.56
3560.00,99.59
3559.00,99.61
3558.00,99.62
3557.00,99.62
3556.00,99.56
3555.00,99.39
3554.00,99.19
3553.00,99.12
3552.00,99.25
3551.00,99.46
3550.00,99.59
3549.00,99.56
3548.00,99.44
3547.00,99.34
3546.00,99.30
3545.00,99.34
3544.00,99.42
3543.00,99.52
3542.00,99.60
3541.00,99.64
3540.00,99.62
3539.00,99.56
3538.00,99.48
3537.00,99.46
3536.00,99.52
3535.00,99.61
3534.00,99.64
3533.00,99.58
3532.00,99.44
3531.00,99.30
3530.00,99.19
3529.00,99.16
3528.00,99.23
3527.00,99.35
3526.00,99.42
3525.00,99.40
3524.00,99.35
3523.00,99.37
3522.00,99.47
3521.00,99.54
3520.00,99.54
3519.00,99.52
3518.00,99.53
3517.00,99.57
3516.00,99.57
3515.00,99.54
3514.00,99.50
3513.00,99.43
3512.00,99.35
3511.00,99.27
3510.00,99.29
3509.00,99.41
3508.00,99.53
3507.00,99.53
3506.00,99.39
3505.00,99.22
3504.00,99.16
3503.00,99.26
3502.00,99.44
3501.00,99.58
3500.00,99.61
3499.00,99.54
3498.00,99.44
3497.00,99.39
3496.00,99.41
3495.00,99.47
3494.00,99.53
3493.00,99.56
3492.00,99.54
3491.00,99.49
3490.00,99.43
3489.00,99.39
3488.00,99.41
3487.00,99.47
3486.00,99.51
3485.00,99.47
3484.00,99.36
3483.00,99.28
3482.00,99.29
3481.00,99.38
3480.00,99.49
3479.00,99.54
3478.00,99.52
3477.00,99.46
3476.00,99.41
3475.00,99.41
3474.00,99.44
3473.00,99.47
3472.00,99.49
3471.00,99.49
3470.00,99.48
3469.00,99.46
3468.00,99.46
3467.00,99.46
3466.00,99.46
3465.00,99.44
3464.00,99.40
3463.00,99.37
3462.00,99.39
3461.00,99.45
3460.00,99.50
3459.00,99.51
3458.00,99.50
3457.00,99.49
3456.00,99.49
3455.00,99.50
3454.00,99.50
3453.00,99.51
3452.00,99.51
3451.00,99.47
3450.00,99.36
3449.00,99.21
3448.00,99.13
3447.00,99.18
3446.00,99.32
3445.00,99.42
3444.00,99.42
3443.00,99.40
3442.00,99.42
3441.00,99.47
3440.00,99.51
3439.00,99.50
3438.00,99.49
3437.00,99.49
3436.00,99.49
3435.00,99.48
3434.00,99.46
3433.00,99.44
3432.00,99.43
3431.00,99.43
3430.00,99.44
3429.00,99.45
3428.00,99.46
3427.00,99.47
3426.00,99.48
3425.00,99.47
3424.00,99.42
3423.00,99.34
3422.00,99.29
3421.00,99.31
3420.00,99.37
3419.00,99.44
3418.00,99.49
3417.00,99.49
3416.00,99.48
3415.00,99.47
3414.00,99.47
3413.00,99.47
3412.00,99.47
3411.00,99.46
3410.00,99.46
3409.00,99.47
3408.00,99.47
3407.00,99.47
3406.00,99.46
3405.00,99.45
3404.00,99.44
3403.00,99.45
3402.00,99.46
3401.00,99.48
3400.00,99.46
3399.00,99.43
3398.00,99.42
3397.00,99.43
3396.00,99.44
3395.00,99.42
3394.00,99.38
3393.00,99.38
3392.00,99.41
3391.00,99.46
3390.00,99.49
3389.00,99.49
3388.00,99.47
3387.00,99.44
3386.00,99.42
3385.00,99.43
3384.00,99.46
3383.00,99.48
3382.00,99.50
3381.00,99.49
3380.00,99.48
3379.00,99.48
3378.00,99.48
3377.00,99.48
3376.00,99.47
3375.00,99.47
3374.00,99.47
3373.00,99.48
3372.00,99.48
3371.00,99.47
3370.00,99.45
3369.00,99.43
3368.00,99.39
3367.00,99.37
3366.00,99.37
3365.00,99.39
3364.00,99.43
3363.00,99.45
3362.00,99.46
3361.00,99.47
3360.00,99.48
3359.00,99.47
3358.00,99.46
3357.00,99.46
3356.00,99.47
3355.00,99.48
3354.00,99.49
3353.00,99.49
3352.00,99.49
3351.00,99.49
3350.00,99.49
3349.00,99.49
3348.00,99.50
3347.00,99.49
3346.00,99.50
3345.00,99.50
3344.00,99.50
3343.00,99.50
3342.00,99.50
3341.00,99.50
3340.00,99.49
3339.00,99.48
3338.00,99.46
3337.00,99.46
3336.00,99.48
3335.00,99.50
3334.00,99.52
3333.00,99.52
3332.00,99.52
3331.00,99.51
3330.00,99.50
3329.00,99.49
3328.00,99.48
3327.00,99.48
3326.00,99.48
3325.00,99.49
3324.00,99.50
3323.00,99.52
3322.00,99.53
3321.00,99.54
3320.00,99.53
3319.00,99.52
3318.00,99.52
3317.00,99.51
3316.00,99.49
3315.00,99.47
3314.00,99.46
3313.00,99.47
3312.00,99.47
3311.00,99.46
3310.00,99.45
3309.00,99.46
3308.00,99.49
3307.00,99.52
3306.00,99.53
3305.00,99.53
3304.00,99.52
3303.00,99.52
3302.00,99.52
3301.00,99.52
3300.00,99.51
3299.00,99.50
3298.00,99.50
3297.00,99.51
3296.00,99.52
3295.00,99.51
3294.00,99.49
3293.00,99.48
3292.00,99.48
3291.00,99.49
3290.00,99.51
3289.00,99.52
3288.00,99.53
3287.00,99.54
3286.00,99.54
3285.00,99.54
3284.00,99.53
3283.00,99.53
3282.00,99.53
3281.00,99.53
3280.00,99.52
3279.00,99.51
3278.00,99.48
3277.00,99.45
3276.00,99.43
3275.00,99.42
3274.00,99.44
3273.00,99.48
3272.00,99.52
3271.00,99.54
3270.00,99.55
3269.00,99.56
3268.00,99.55
3267.00,99.54
3266.00,99.53
3265.00,99.54
3264.00,99.55
3263.00,99.55
3262.00,99.55
3261.00,99.54
3260.00,99.54
3259.00,99.53
3258.00,99.52
3257.00,99.50
3256.00,99.48
3255.00,99.47
3254.00,99.49
3253.00,99.53
3252.00,99.56
3251.00,99.57
3250.00,99.57
3249.00,99.56
3248.00,99.52
3247.00,99.47
3246.00,99.44
3245.00,99.45
3244.00,99.50
3243.00,99.54
3242.00,99.56
3241.00,99.56
3240.00,99.55
3239.00,99.54
3238.00,99.54
3237.00,99.54
3236.00,99.54
3235.00,99.54
3234.00,99.54
3233.00,99.54
3232.00,99.53
3231.00,99.54
3230.00,99.54
3229.00,99.54
3228.00,99.55
3227.00,99.57
3226.00,99.59
3225.00,99.59
3224.00,99.59
3223.00,99.56
3222.00,99.53
3221.00,99.50
3220.00,99.50
3219.00,99.53
3218.00,99.55
3217.00,99.55
3216.00,99.52
3215.00,99.50
3214.00,99.51
3213.00,99.54
3212.00,99.54
3211.00,99.53
3210.00,99.53
3209.00,99.55
3208.00,99.58
3207.00,99.60
3206.00,99.61
3205.00,99.61
3204.00,99.61
3203.00,99.62
3202.00,99.61
3201.00,99.59
3200.00,99.55
3199.00,99.51
3198.00,99.50
3197.00,99.53
3196.00,99.57
3195.00,99.61
3194.00,99.63
3193.00,99.64
3192.00,99.64
3191.00,99.64
3190.00,99.64
3189.00,99.63
3188.00,99.62
3187.00,99.59
3186.00,99.58
3185.00,99.58
3184.00,99.61
3183.00,99.63
3182.00,99.62
3181.00,99.58
3180.00,99.54
3179.00,99.51
3178.00,99.53
3177.00,99.59
3176.00,99.63
3175.00,99.65
3174.00,99.65
3173.00,99.64
3172.00,99.64
3171.00,99.65
3170.00,99.65
3169.00,99.66
3168.00,99.66
3167.00,99.66
3166.00,99.66
3165.00,99.66
3164.00,99.67
3163.00,99.67
3162.00,99.67
3161.00,99.67
3160.00,99.68
3159.00,99.68
3158.00,99.67
3157.00,99.67
3156.00,99.67
3155.00,99.67
3154.00,99.67
3153.00,99.67
3152.00,99.68
3151.00,99.68
3150.00,99.68
3149.00,99.68
3148.00,99.68
3147.00,99.67
3146.00,99.67
3145.00,99.67
3144.00,99.67
3143.00,99.67
3142.00,99.67
3141.00,99.68
3140.00,99.68
3139.00,99.69
3138.00,99.69
3137.00,99.69
3136.00,99.66
3135.00,99.61
3134.00,99.58
3133.00,99.59
3132.00,99.63
3131.00,99.67
3130.00,99.68
3129.00,99.66
3128.00,99.64
3127.00,99.63
3126.00,99.63
3125.00,99.61
3124.00,99.59
3123.00,99.58
3122.00,99.59
3121.00,99.61
3120.00,99.60
3119.00,99.59
3118.00,99.57
3117.00,99.58
3116.00,99.60
3115.00,99.63
3114.00,99.66
3113.00,99.67
3112.00,99.68
3111.00,99.67
3110.00,99.67
3109.00,99.67
3108.00,99.68
3107.00,99.69
3106.00,99.69
3105.00,99.68
3104.00,99.64
3103.00,99.59
3102.00,99.58
3101.00,99.60
3100.00,99.64
3099.00,99.66
3098.00,99.65
3097.00,99.63
3096.00,99.63
3095.00,99.66
3094.00,99.70
3093.00,99.72
3092.00,99.73
3091.00,99.73
3090.00,99.73
3089.00,99.72
3088.00,99.72
3087.00,99.72
3086.00,99.72
3085.00,99.71
3084.00,99.68
3083.00,99.65
3082.00,99.63
3081.00,99.62
3080.00,99.63
3079.00,99.66
3078.00,99.69
3077.00,99.72
3076.00,99.73
3075.00,99.73
3074.00,99.73
3073.00,99.74
3072.00,99.74
3071.00,99.74
3070.00,99.71
3069.00,99.68
3068.00,99.65
3067.00,99.62
3066.00,99.61
3065.00,99.63
3064.00,99.67
3063.00,99.70
3062.00,99.72
3061.00,99.73
3060.00,99.72
3059.00,99.70
3058.00,99.68
3057.00,99.67
3056.00,99.69
3055.00,99.72
3054.00,99.74
3053.00,99.75
3052.00,99.73
3051.00,99.70
3050.00,99.69
3049.00,99.69
3048.00,99.71
3047.00,99.73
3046.00,99.74
3045.00,99.74
3044.00,99.74
3043.00,99.74
3042.00,99.74
3041.00,99.75
3040.00,99.75
3039.00,99.74
3038.00,99.73
3037.00,99.72
3036.00,99.70
3035.00,99.68
3034.00,99.65
3033.00,99.62
3032.00,99.62
3031.00,99.65
3030.00,99.70
3029.00,99.74
3028.00,99.74
3027.00,99.73
3026.00,99.72
3025.00,99.72
3024.00,99.73
3023.00,99.74
3022.00,99.75
3021.00,99.77
3020.00,99.78
3019.00,99.78
3018.00,99.77
3017.00,99.76
3016.00,99.74
3015.00,99.72
3014.00,99.69
3013.00,99.68
3012.00,99.68
3011.00,99.70
3010.00,99.73
3009.00,99.75
3008.00,99.76
3007.00,99.76
3006.00,99.75
3005.00,99.74
3004.00,99.74
3003.00,99.75
3002.00,99.76
3001.00,99.77
3000.00,99.77
2999.00,99.77
2998.00,99.77
2997.00,99.76
2996.00,99.75
2995.00,99.74
2994.00,99.74
2993.00,99.75
2992.00,99.75
2991.00,99.75
2990.00,99.75
2989.00,99.75
2988.00,99.75
2987.00,99.75
2986.00,99.76
2985.00,99.76
2984.00,99.76
2983.00,99.76
2982.00,99.76
2981.00,99.76
2980.00,99.76
2979.00,99.75
2978.00,99.76
2977.00,99.76
2976.00,99.75
2975.00,99.75
2974.00,99.75
2973.00,99.76
2972.00,99.76
2971.00,99.76
2970.00,99.76
2969.00,99.76
2968.00,99.75
2967.00,99.75
2966.00,99.75
2965.00,99.75
2964.00,99.76
2963.00,99.76
2962.00,99.77
2961.00,99.77
2960.00,99.77
2959.00,99.77
2958.00,99.76
2957.00,99.76
2956.00,99.75
2955.00,99.75
2954.00,99.75
2953.00,99.75
2952.00,99.76
2951.00,99.76
2950.00,99.77
2949.00,99.77
2948.00,99.76
2947.00,99.76
2946.00,99.76
2945.00,99.76
2944.00,99.77
2943.00,99.77
2942.00,99.77
2941.00,99.78
2940.00,99.78
2939.00,99.79
2938.00,99.79
2937.00,99.79
2936.00,99.79
2935.00,99.78
2934.00,99.78
2933.00,99.78
2932.00,99.78
2931.00,99.78
2930.00,99.79
2929.00,99.79
2928.00,99.79
2927.00,99.78
2926.00,99.77
2925.00,99.76
2924.00,99.75
2923.00,99.74
2922.00,99.73
2921.00,99.72
2920.00,99.71
2919.00,99.71
2918.00,99.71
2917.00,99.71
2916.00,99.72
2915.00,99.73
2914.00,99.73
2913.00,99.74
2912.00,99.74
2911.00,99.74
2910.00,99.75
2909.00,99.76
2908.00,99.76
2907.00,99.76
2906.00,99.76
2905.00,99.75
2904.00,99.74
2903.00,99.74
2902.00,99.75
2901.00,99.76
2900.00,99.76
2899.00,99.76
2898.00,99.76
2897.00,99.75
2896.00,99.75
2895.00,99.75
2894.00,99.75
2893.00,99.76
2892.00,99.77
2891.00,99.77
2890.00,99.78
2889.00,99.78
2888.00,99.78
2887.00,99.78
2886.00,99.78
2885.00,99.78
2884.00,99.77
2883.00,99.77
2882.00,99.78
2881.00,99.78
2880.00,99.79
2879.00,99.79
2878.00,99.78
2877.00,99.78
2876.00,99.78
2875.00,99.78
2874.00,99.78
2873.00,99.78
2872.00,99.78
2871.00,99.78
2870.00,99.78
2869.00,99.77
2868.00,99.77
2867.00,99.76
2866.00,99.76
2865.00,99.76
2864.00,99.77
2863.00,99.78
2862.00,99.78
2861.00,99.78
2860.00,99.78
2859.00,99.77
2858.00,99.77
2857.00,99.77
2856.00,99.77
2855.00,99.77
2854.00,99.77
2853.00,99.77
2852.00,99.76
2851.00,99.75
2850.00,99.74
2849.00,99.74
2848.00,99.74
2847.00,99.75
2846.00,99.76
2845.00,99.77
2844.00,99.77
2843.00,99.77
2842.00,99.77
2841.00,99.77
2840.00,99.77
2839.00,99.78
2838.00,99.78
2837.00,99.78
2836.00,99.79
2835.00,99.79
2834.00,99.80
2833.00,99.80
2832.00,99.80
2831.00,99.80
2830.00,99.80
2829.00,99.79
2828.00,99.79
2827.00,99.78
2826.00,99.78
2825.00,99.78
2824.00,99.78
2823.00,99.78
2822.00,99.78
2821.00,99.79
2820.00,99.79
2819.00,99.79
2818.00,99.79
2817.00,99.79
2816.00,99.79
2815.00,99.79
2814.00,99.78
2813.00,99.78
2812.00,99.78
2811.00,99.78
2810.00,99.79
2809.00,99.79
2808.00,99.79
2807.00,99.80
2806.00,99.80
2805.00,99.80
2804.00,99.80
2803.00,99.79
2802.00,99.79
2801.00,99.79
2800.00,99.79
2799.00,99.79
2798.00,99.79
2797.00,99.80
2796.00,99.80
2795.00,99.79
2794.00,99.79
2793.00,99.79
2792.00,99.80
2791.00,99.80
2790.00,99.80
2789.00,99.80
2788.00,99.80
2787.00,99.80
2786.00,99.79
2785.00,99.79
2784.00,99.79
2783.00,99.78
2782.00,99.78
2781.00,99.78
2780.00,99.79
2779.00,99.79
2778.00,99.79
2777.00,99.79
2776.00,99.79
2775.00,99.79
2774.00,99.80
2773.00,99.80
2772.00,99.80
2771.00,99.80
2770.00,99.79
2769.00,99.79
2768.00,99.79
2767.00,99.80
2766.00,99.80
2765.00,99.80
2764.00,99.80
2763.00,99.80
2762.00,99.80
2761.00,99.80
2760.00,99.80
2759.00,99.80
2758.00,99.80
2757.00,99.79
2756.00,99.79
2755.00,99.78
2754.00,99.78
2753.00,99.79
2752.00,99.79
2751.00,99.79
2750.00,99.79
2749.00,99.79
2748.00,99.79
2747.00,99.79
2746.00,99.79
2745.00,99.79
2744.00,99.79
2743.00,99.79
2742.00,99.79
2741.00,99.79
2740.00,99.79
2739.00,99.79
2738.00,99.79
2737.00,99.79
2736.00,99.79
2735.00,99.79
2734.00,99.79
2733.00,99.79
2732.00,99.79
2731.00,99.79
2730.00,99.80
2729.00,99.80
2728.00,99.80
2727.00,99.79
2726.00,99.79
2725.00,99.79
2724.00,99.79
2723.00,99.79
2722.00,99.79
2721.00,99.78
2720.00,99.78
2719.00,99.78
2718.00,99.79
2717.00,99.79
2716.00,99.79
2715.00,99.79
2714.00,99.79
2713.00,99.80
2712.00,99.80
2711.00,99.80
2710.00,99.80
2709.00,99.80
2708.00,99.80
2707.00,99.80
2706.00,99.80
2705.00,99.80
2704.00,99.80
2703.00,99.80
2702.00,99.80
2701.00,99.80
2700.00,99.80
2699.00,99.79
2698.00,99.79
2697.00,99.78
2696.00,99.78
2695.00,99.79
2694.00,99.79
2693.00,99.80
2692.00,99.80
2691.00,99.80
2690.00,99.80
2689.00,99.80
2688.00,99.79
2687.00,99.78
2686.00,99.78
2685.00,99.78
2684.00,99.79
2683.00,99.80
2682.00,99.80
2681.00,99.80
2680.00,99.80
2679.00,99.80
2678.00,99.80
2677.00,99.80
2676.00,99.80
2675.00,99.80
2674.00,99.80
2673.00,99.80
2672.00,99.80
2671.00,99.80
2670.00,99.81
2669.00,99.81
2668.00,99.81
2667.00,99.80
2666.00,99.80
2665.00,99.80
2664.00,99.80
2663.00,99.79
2662.00,99.80
2661.00,99.80
2660.00,99.80
2659.00,99.80
2658.00,99.80
2657.00,99.80
2656.00,99.80
2655.00,99.80
2654.00,99.80
2653.00,99.80
2652.00,99.80
2651.00,99.80
2650.00,99.80
2649.00,99.80
2648.00,99.80
2647.00,99.79
2646.00,99.79
2645.00,99.79
2644.00,99.80
2643.00,99.80
2642.00,99.80
2641.00,99.80
2640.00,99.80
2639.00,99.80
2638.00,99.80
2637.00,99.80
2636.00,99.80
2635.00,99.80
2634.00,99.80
2633.00,99.80
2632.00,99.80
2631.00,99.80
2630.00,99.80
2629.00,99.80
2628.00,99.80
2627.00,99.80
2626.00,99.81
2625.00,99.81
2624.00,99.81
2623.00,99.80
2622.00,99.80
2621.00,99.80
2620.00,99.80
2619.00,99.80
2618.00,99.80
2617.00,99.79
2616.00,99.79
2615.00,99.79
2614.00,99.79
2613.00,99.79
2612.00,99.80
2611.00,99.80
2610.00,99.80
2609.00,99.80
2608.00,99.80
2607.00,99.80
2606.00,99.79
2605.00,99.79
2604.00,99.79
2603.00,99.80
2602.00,99.80
2601.00,99.81
2600.00,99.81
2599.00,99.81
2598.00,99.81
2597.00,99.82
2596.00,99.81
2595.00,99.81
2594.00,99.80
2593.00,99.79
2592.00,99.79
2591.00,99.79
2590.00,99.79
2589.00,99.79
2588.00,99.80
2587.00,99.80
2586.00,99.80
2585.00,99.80
2584.00,99.80
2583.00,99.80
2582.00,99.80
2581.00,99.80
2580.00,99.81
2579.00,99.81
2578.00,99.81
2577.00,99.80
2576.00,99.80
2575.00,99.79
2574.00,99.79
2573.00,99.80
2572.00,99.80
2571.00,99.80
2570.00,99.79
2569.00,99.79
2568.00,99.79
2567.00,99.79
2566.00,99.79
2565.00,99.79
2564.00,99.79
2563.00,99.79
2562.00,99.79
2561.00,99.80
2560.00,99.80
2559.00,99.81
2558.00,99.81
2557.00,99.81
2556.00,99.80
2555.00,99.80
2554.00,99.80
2553.00,99.79
2552.00,99.79
2551.00,99.80
2550.00,99.80
2549.00,99.80
2548.00,99.81
2547.00,99.80
2546.00,99.80
2545.00,99.80
2544.00,99.79
2543.00,99.79
2542.00,99.80
2541.00,99.80
2540.00,99.80
2539.00,99.79
2538.00,99.79
2537.00,99.79
2536.00,99.79
2535.00,99.79
2534.00,99.80
2533.00,99.80
2532.00,99.81
2531.00,99.81
2530.00,99.81
2529.00,99.81
2528.00,99.81
2527.00,99.81
2526.00,99.81
2525.00,99.81
2524.00,99.80
2523.00,99.80
2522.00,99.80
2521.00,99.80
2520.00,99.81
2519.00,99.80
2518.00,99.80
2517.00,99.80
2516.00,99.79
2515.00,99.79
2514.00,99.79
2513.00,99.80
2512.00,99.80
2511.00,99.80
2510.00,99.80
2509.00,99.80
2508.00,99.80
2507.00,99.81
2506.00,99.81
2505.00,99.81
2504.00,99.81
2503.00,99.81
2502.00,99.80
2501.00,99.80
2500.00,99.80
2499.00,99.80
2498.00,99.80
2497.00,99.80
2496.00,99.80
2495.00,99.81
2494.00,99.81
2493.00,99.81
2492.00,99.81
2491.00,99.80
2490.00,99.80
2489.00,99.80
2488.00,99.81
2487.00,99.81
2486.00,99.81
2485.00,99.81
2484.00,99.81
2483.00,99.81
2482.00,99.80
2481.00,99.80
2480.00,99.80
2479.00,99.80
2478.00,99.80
2477.00,99.80
2476.00,99.81
2475.00,99.80
2474.00,99.80
2473.00,99.79
2472.00,99.79
2471.00,99.79
2470.00,99.80
2469.00,99.80
2468.00,99.81
2467.00,99.81
2466.00,99.80
2465.00,99.80
2464.00,99.80
2463.00,99.80
2462.00,99.81
2461.00,99.81
2460.00,99.81
2459.00,99.81
2458.00,99.80
2457.00,99.80
2456.00,99.80
2455.00,99.80
2454.00,99.81
2453.00,99.81
2452.00,99.81
2451.00,99.80
2450.00,99.80
2449.00,99.80
2448.00,99.80
2447.00,99.80
2446.00,99.80
2445.00,99.80
2444.00,99.80
2443.00,99.80
2442.00,99.80
2441.00,99.80
2440.00,99.81
2439.00,99.80
2438.00,99.80
2437.00,99.80
2436.00,99.80
2435.00,99.80
2434.00,99.80
2433.00,99.80
2432.00,99.80
2431.00,99.80
2430.00,99.80
2429.00,99.80
2428.00,99.80
2427.00,99.80
2426.00,99.80
2425.00,99.81
2424.00,99.80
2423.00,99.80
2422.00,99.79
2421.00,99.80
2420.00,99.80
2419.00,99.80
2418.00,99.80
2417.00,99.80
2416.00,99.80
2415.00,99.81
2414.00,99.81
2413.00,99.81
2412.00,99.81
2411.00,99.80
2410.00,99.80
2409.00,99.80
2408.00,99.80
2407.00,99.80
2406.00,99.80
2405.00,99.80
2404.00,99.80
2403.00,99.80
2402.00,99.80
2401.00,99.80
2400.00,99.80
2399.00,99.80
2398.00,99.80
2397.00,99.80
2396.00,99.80
2395.00,99.79
2394.00,99.79
2393.00,99.79
2392.00,99.80
2391.00,99.80
2390.00,99.81
2389.00,99.81
2388.00,99.82
2387.00,99.82
2386.00,99.83
2385.00,99.84
2384.00,99.85
2383.00,99.85
2382.00,99.85
2381.00,99.85
2380.00,99.84
2379.00,99.83
2378.00,99.82
2377.00,99.82
2376.00,99.81
2375.00,99.81
2374.00,99.82
2373.00,99.83
2372.00,99.83
2371.00,99.83
2370.00,99.84
2369.00,99.85
2368.00,99.84
2367.00,99.84
2366.00,99.82
2365.00,99.81
2364.00,99.80
2363.00,99.80
2362.00,99.82
2361.00,99.86
2360.00,99.88
2359.00,99.89
2358.00,99.88
2357.00,99.87
2356.00,99.85
2355.00,99.83
2354.00,99.80
2353.00,99.77
2352.00,99.78
2351.00,99.81
2350.00,99.84
2349.00,99.85
2348.00,99.85
2347.00,99.85
2346.00,99.85
2345.00,99.86
2344.00,99.88
2343.00,99.90
2342.00,99.92
2341.00,99.93
2340.00,99.93
2339.00,99.91
2338.00,99.89
2337.00,99.86
2336.00,99.85
2335.00,99.84
2334.00,99.84
2333.00,99.84
2332.00,99.84
2331.00,99.86
2330.00,99.86
2329.00,99.86
2328.00,99.87
2327.00,99.89
2326.00,99.89
2325.00,99.90
2324.00,99.91
2323.00,99.91
2322.00,99.92
2321.00,99.91
2320.00,99.92
2319.00,99.91
2318.00,99.91
2317.00,99.90
2316.00,99.89
2315.00,99.89
2314.00,99.89
2313.00,99.88
2312.00,99.88
2311.00,99.87
2310.00,99.86
2309.00,99.85
2308.00,99.85
2307.00,99.85
2306.00,99.85
2305.00,99.85
2304.00,99.85
2303.00,99.85
2302.00,99.85
2301.00,99.84
2300.00,99.84
2299.00,99.83
2298.00,99.83
2297.00,99.82
2296.00,99.82
2295.00,99.82
2294.00,99.82
2293.00,99.81
2292.00,99.81
2291.00,99.81
2290.00,99.80
2289.00,99.80
2288.00,99.80
2287.00,99.81
2286.00,99.81
2285.00,99.81
2284.00,99.81
2283.00,99.81
2282.00,99.80
2281.00,99.80
2280.00,99.80
2279.00,99.80
2278.00,99.80
2277.00,99.79
2276.00,99.79
2275.00,99.79
2274.00,99.80
2273.00,99.80
2272.00,99.80
2271.00,99.80
2270.00,99.80
2269.00,99.80
2268.00,99.80
2267.00,99.80
2266.00,99.80
2265.00,99.80
2264.00,99.80
2263.00,99.80
2262.00,99.80
2261.00,99.79
2260.00,99.79
2259.00,99.79
2258.00,99.79
2257.00,99.79
2256.00,99.79
2255.00,99.79
2254.00,99.79
2253.00,99.79
2252.00,99.80
2251.00,99.81
2250.00,99.81
2249.00,99.81
2248.00,99.81
2247.00,99.80
2246.00,99.80
2245.00,99.80
2244.00,99.80
2243.00,99.80
2242.00,99.80
2241.00,99.80
2240.00,99.81
2239.00,99.81
2238.00,99.82
2237.00,99.82
2236.00,99.82
2235.00,99.82
2234.00,99.81
2233.00,99.81
2232.00,99.80
2231.00,99.80
2230.00,99.80
2229.00,99.80
2228.00,99.80
2227.00,99.81
2226.00,99.81
2225.00,99.80
2224.00,99.80
2223.00,99.80
2222.00,99.80
2221.00,99.80
2220.00,99.81
2219.00,99.81
2218.00,99.81
2217.00,99.81
2216.00,99.81
2215.00,99.81
2214.00,99.80
2213.00,99.79
2212.00,99.79
2211.00,99.79
2210.00,99.79
2209.00,99.79
2208.00,99.79
2207.00,99.79
2206.00,99.79
2205.00,99.80
2204.00,99.80
2203.00,99.80
2202.00,99.80
2201.00,99.79
2200.00,99.79
2199.00,99.79
2198.00,99.79
2197.00,99.79
2196.00,99.80
2195.00,99.80
2194.00,99.80
2193.00,99.80
2192.00,99.80
2191.00,99.80
2190.00,99.81
2189.00,99.81
2188.00,99.81
2187.00,99.81
2186.00,99.81
2185.00,99.81
2184.00,99.80
2183.00,99.80
2182.00,99.79
2181.00,99.79
2180.00,99.79
2179.00,99.79
2178.00,99.79
2177.00,99.79
2176.00,99.79
2175.00,99.80
2174.00,99.80
2173.00,99.80
2172.00,99.79
2171.00,99.79
2170.00,99.79
2169.00,99.79
2168.00,99.79
2167.00,99.80
2166.00,99.80
2165.00,99.81
2164.00,99.81
2163.00,99.81
2162.00,99.80
2161.00,99.80
2160.00,99.79
2159.00,99.79
2158.00,99.79
2157.00,99.79
2156.00,99.79
2155.00,99.79
2154.00,99.80
2153.00,99.80
2152.00,99.80
2151.00,99.80
2150.00,99.80
2149.00,99.80
2148.00,99.79
2147.00,99.79
2146.00,99.79
2145.00,99.79
2144.00,99.80
2143.00,99.80
2142.00,99.80
2141.00,99.80
2140.00,99.80
2139.00,99.80
2138.00,99.79
2137.00,99.79
2136.00,99.79
2135.00,99.80
2134.00,99.80
2133.00,99.80
2132.00,99.80
2131.00,99.80
2130.00,99.80
2129.00,99.80
2128.00,99.80
2127.00,99.80
2126.00,99.79
2125.00,99.79
2124.00,99.79
2123.00,99.78
2122.00,99.79
2121.00,99.79
2120.00,99.80
2119.00,99.80
2118.00,99.80
2117.00,99.79
2116.00,99.79
2115.00,99.79
2114.00,99.80
2113.00,99.80
2112.00,99.80
2111.00,99.80
2110.00,99.80
2109.00,99.79
2108.00,99.79
2107.00,99.78
2106.00,99.78
2105.00,99.78
2104.00,99.79
2103.00,99.79
2102.00,99.79
2101.00,99.79
2100.00,99.79
2099.00,99.79
2098.00,99.79
2097.00,99.79
2096.00,99.79
2095.00,99.79
2094.00,99.80
2093.00,99.79
2092.00,99.78
2091.00,99.77
2090.00,99.77
2089.00,99.77
2088.00,99.78
2087.00,99.79
2086.00,99.79
2085.00,99.79
2084.00,99.79
2083.00,99.79
2082.00,99.79
2081.00,99.80
2080.00,99.80
2079.00,99.81
2078.00,99.80
2077.00,99.80
2076.00,99.79
2075.00,99.79
2074.00,99.78
2073.00,99.79
2072.00,99.79
2071.00,99.80
2070.00,99.80
2069.00,99.79
2068.00,99.78
2067.00,99.75
2066.00,99.73
2065.00,99.73
2064.00,99.76
2063.00,99.78
2062.00,99.78
2061.00,99.77
2060.00,99.78
2059.00,99.79
2058.00,99.80
2057.00,99.80
2056.00,99.80
2055.00,99.79
2054.00,99.79
2053.00,99.79
2052.00,99.79
2051.00,99.79
2050.00,99.79
2049.00,99.79
2048.00,99.78
2047.00,99.78
2046.00,99.77
2045.00,99.76
2044.00,99.75
2043.00,99.73
2042.00,99.72
2041.00,99.73
2040.00,99.75
2039.00,99.78
2038.00,99.79
2037.00,99.79
2036.00,99.79
2035.00,99.79
2034.00,99.79
2033.00,99.79
2032.00,99.79
2031.00,99.79
2030.00,99.79
2029.00,99.78
2028.00,99.77
2027.00,99.77
2026.00,99.77
2025.00,99.78
2024.00,99.79
2023.00,99.79
2022.00,99.79
2021.00,99.76
2020.00,99.71
2019.00,99.65
2018.00,99.61
2017.00,99.63
2016.00,99.70
2015.00,99.76
2014.00,99.79
2013.00,99.79
2012.00,99.79
2011.00,99.78
2010.00,99.77
2009.00,99.77
2008.00,99.78
2007.00,99.80
2006.00,99.80
2005.00,99.80
2004.00,99.81
2003.00,99.80
2002.00,99.79
2001.00,99.76
2000.00,99.75
1999.00,99.75
1998.00,99.76
1997.00,99.78
1996.00,99.78
1995.00,99.73
1994.00,99.66
1993.00,99.61
1992.00,99.63
1991.00,99.69
1990.00,99.71
1989.00,99.70
1988.00,99.71
1987.00,99.75
1986.00,99.79
1985.00,99.80
1984.00,99.80
1983.00,99.80
1982.00,99.80
1981.00,99.80
1980.00,99.79
1979.00,99.79
1978.00,99.79
1977.00,99.78
1976.00,99.78
1975.00,99.79
1974.00,99.80
1973.00,99.79
1972.00,99.79
1971.00,99.78
1970.00,99.72
1969.00,99.61
1968.00,99.52
1967.00,99.53
1966.00,99.62
1965.00,99.72
1964.00,99.77
1963.00,99.77
1962.00,99.76
1961.00,99.75
1960.00,99.76
1959.00,99.78
1958.00,99.78
1957.00,99.75
1956.00,99.71
1955.00,99.72
1954.00,99.75
1953.00,99.77
1952.00,99.78
1951.00,99.79
1950.00,99.78
1949.00,99.72
1948.00,99.63
1947.00,99.54
1946.00,99.48
1945.00,99.42
1944.00,99.37
1943.00,99.38
1942.00,99.50
1941.00,99.67
1940.00,99.78
1939.00,99.82
1938.00,99.81
1937.00,99.79
1936.00,99.79
1935.00,99.77
1934.00,99.76
1933.00,99.76
1932.00,99.77
1931.00,99.78
1930.00,99.79
1929.00,99.79
1928.00,99.80
1927.00,99.80
1926.00,99.73
1925.00,99.59
1924.00,99.45
1923.00,99.42
1922.00,99.54
1921.00,99.70
1920.00,99.78
1919.00,99.78
1918.00,99.77
1917.00,99.79
1916.00,99.82
1915.00,99.83
1914.00,99.80
1913.00,99.73
1912.00,99.61
1911.00,99.45
1910.00,99.35
1909.00,99.39
1908.00,99.50
1907.00,99.61
1906.00,99.67
1905.00,99.71
1904.00,99.73
1903.00,99.75
1902.00,99.76
1901.00,99.79
1900.00,99.80
1899.00,99.78
1898.00,99.70
1897.00,99.59
1896.00,99.51
1895.00,99.52
1894.00,99.63
1893.00,99.75
1892.00,99.77
1891.00,99.70
1890.00,99.66
1889.00,99.69
1888.00,99.75
1887.00,99.74
1886.00,99.67
1885.00,99.64
1884.00,99.67
1883.00,99.73
1882.00,99.77
1881.00,99.79
1880.00,99.80
1879.00,99.80
1878.00,99.80
1877.00,99.80
1876.00,99.81
1875.00,99.81
1874.00,99.81
1873.00,99.82
1872.00,99.81
1871.00,99.70
1870.00,99.47
1869.00,99.19
1868.00,99.04
1867.00,99.11
1866.00,99.35
1865.00,99.61
1864.00,99.76
1863.00,99.79
1862.00,99.77
1861.00,99.74
1860.00,99.73
1859.00,99.71
1858.00,99.71
1857.00,99.75
1856.00,99.78
1855.00,99.77
1854.00,99.76
1853.00,99.77
1852.00,99.79
1851.00,99.78
1850.00,99.73
1849.00,99.66
1848.00,99.55
1847.00,99.36
1846.00,99.17
1845.00,99.09
1844.00,99.18
1843.00,99.41
1842.00,99.66
1841.00,99.79
1840.00,99.73
1839.00,99.59
1838.00,99.48
1837.00,99.49
1836.00,99.60
1835.00,99.74
1834.00,99.85
1833.00,99.85
1832.00,99.72
1831.00,99.50
1830.00,99.33
1829.00,99.35
1828.00,99.52
1827.00,99.65
1826.00,99.66
1825.00,99.65
1824.00,99.69
1823.00,99.76
1822.00,99.79
1821.00,99.78
1820.00,99.79
1819.00,99.79
1818.00,99.77
1817.00,99.76
1816.00,99.79
1815.00,99.79
1814.00,99.66
1813.00,99.45
1812.00,99.30
1811.00,99.26
1810.00,99.34
1809.00,99.46
1808.00,99.58
1807.00,99.65
1806.00,99.69
1805.00,99.76
1804.00,99.84
1803.00,99.84
1802.00,99.71
1801.00,99.55
1800.00,99.46
1799.00,99.41
1798.00,99.32
1797.00,99.25
1796.00,99.30
1795.00,99.49
1794.00,99.78
1793.00,100.05
1792.00,100.14
1791.00,100.08
1790.00,99.98
1789.00,99.90
1788.00,99.85
1787.00,99.78
1786.00,99.72
1785.00,99.66
1784.00,99.55
1783.00,99.32
1782.00,99.01
1781.00,98.86
1780.00,99.01
1779.00,99.33
1778.00,99.54
1777.00,99.58
1776.00,99.55
1775.00,99.56
1774.00,99.64
1773.00,99.65
1772.00,99.59
1771.00,99.60
1770.00,99.69
1769.00,99.75
1768.00,99.77
1767.00,99.81
1766.00,99.89
1765.00,99.98
1764.00,100.10
1763.00,100.23
1762.00,100.28
1761.00,100.18
1760.00,100.08
1759.00,100.05
1758.00,100.09
1757.00,100.10
1756.00,100.06
1755.00,99.98
1754.00,99.85
1753.00,99.74
1752.00,99.65
1751.00,99.46
1750.00,99.10
1749.00,98.73
1748.00,98.58
1747.00,98.68
1746.00,98.84
1745.00,98.95
1744.00,99.09
1743.00,99.34
1742.00,99.61
1741.00,99.72
1740.00,99.70
1739.00,99.68
1738.00,99.65
1737.00,99.47
1736.00,99.34
1735.00,99.45
1734.00,99.46
1733.00,99.22
1732.00,99.04
1731.00,98.98
1730.00,99.08
1729.00,99.34
1728.00,99.61
1727.00,99.75
1726.00,99.72
1725.00,99.61
1724.00,99.56
1723.00,99.63
1722.00,99.67
1721.00,99.56
1720.00,99.40
1719.00,99.52
1718.00,99.90
1717.00,100.16
1716.00,100.13
1715.00,99.93
1714.00,99.73
1713.00,99.61
1712.00,99.52
1711.00,99.42
1710.00,99.33
1709.00,99.23
1708.00,99.14
1707.00,99.12
1706.00,99.33
1705.00,99.66
1704.00,99.66
1703.00,99.01
1702.00,98.20
1701.00,97.89
1700.00,98.06
1699.00,98.41
1698.00,98.65
1697.00,98.68
1696.00,98.68
1695.00,98.83
1694.00,99.24
1693.00,99.60
1692.00,99.61
1691.00,99.39
1690.00,99.29
1689.00,99.38
1688.00,99.47
1687.00,99.41
1686.00,99.50
1685.00,99.80
1684.00,99.86
1683.00,99.70
1682.00,99.59
1681.00,99.51
1680.00,99.49
1679.00,99.54
1678.00,99.54
1677.00,99.46
1676.00,99.38
1675.00,99.37
1674.00,99.38
1673.00,99.32
1672.00,99.09
1671.00,98.80
1670.00,98.66
1669.00,98.73
1668.00,99.04
1667.00,99.47
1666.00,99.76
1665.00,99.76
1664.00,99.60
1663.00,99.46
1662.00,99.47
1661.00,99.60
1660.00,99.73
1659.00,99.84
1658.00,99.94
1657.00,99.90
1656.00,99.60
1655.00,99.45
1654.00,99.56
1653.00,99.10
1652.00,98.61
1651.00,98.97
1650.00,99.48
1649.00,99.57
1648.00,99.58
1647.00,99.75
1646.00,99.82
1645.00,99.73
1644.00,99.64
1643.00,99.56
1642.00,99.47
1641.00,99.34
1640.00,99.14
1639.00,98.85
1638.00,98.62
1637.00,98.65
1636.00,98.82
1635.00,98.95
1634.00,99.19
1633.00,99.54
1632.00,99.74
1631.00,99.67
1630.00,99.46
1629.00,99.26
1628.00,99.22
1627.00,99.37
1626.00,99.55
1625.00,99.56
1624.00,99.39
1623.00,99.25
1622.00,99.33
1621.00,99.56
1620.00,99.65
1619.00,99.54
1618.00,99.45
1617.00,99.40
1616.00,99.37
1615.00,99.48
1614.00,99.68
1613.00,99.71
1612.00,99.50
1611.00,99.19
1610.00,98.95
1609.00,98.85
1608.00,98.91
1607.00,99.06
1606.00,99.22
1605.00,99.26
1604.00,99.19
1603.00,99.14
1602.00,99.22
1601.00,99.40
1600.00,99.55
1599.00,99.57
1598.00,99.50
1597.00,99.34
1596.00,99.17
1595.00,99.11
1594.00,99.21
1593.00,99.36
1592.00,99.44
1591.00,99.46
1590.00,99.50
1589.00,99.59
1588.00,99.66
1587.00,99.69
1586.00,99.70
1585.00,99.72
1584.00,99.72
1583.00,99.70
1582.00,99.73
1581.00,99.79
1580.00,99.71
1579.00,99.44
1578.00,99.21
1577.00,99.23
1576.00,99.33
1575.00,99.47
1574.00,99.74
1573.00,99.91
1572.00,99.81
1571.00,99.57
1570.00,99.39
1569.00,99.34
1568.00,99.38
1567.00,99.40
1566.00,99.37
1565.00,99.43
1564.00,99.61
1563.00,99.71
1562.00,99.68
1561.00,99.97
1560.00,100.51
1559.00,100.22
1558.00,99.47
1557.00,99.52
1556.00,100.17
1555.00,100.64
1554.00,100.67
1553.00,100.45
1552.00,100.21
1551.00,100.00
1550.00,99.91
1549.00,99.97
1548.00,100.15
1547.00,100.34
1546.00,100.41
1545.00,100.30
1544.00,100.06
1543.00,99.93
1542.00,100.15
1541.00,100.52
1540.00,100.32
1539.00,99.60
1538.00,99.28
1537.00,99.56
1536.00,99.88
1535.00,99.96
1534.00,99.89
1533.00,99.82
1532.00,99.81
1531.00,99.79
1530.00,99.73
1529.00,99.77
1528.00,100.01
1527.00,100.32
1526.00,100.49
1525.00,100.49
1524.00,100.51
1523.00,100.73
1522.00,101.02
1521.00,101.01
1520.00,100.67
1519.00,100.25
1518.00,99.89
1517.00,99.75
1516.00,99.91
1515.00,100.21
1514.00,100.41
1513.00,100.43
1512.00,100.32
1511.00,100.10
1510.00,99.75
1509.00,99.48
1508.00,99.63
1507.00,99.88
1506.00,99.71
1505.00,99.49
1504.00,99.59
1503.00,99.70
1502.00,99.63
1501.00,99.51
1500.00,99.50
1499.00,99.63
1498.00,99.85
1497.00,100.01
1496.00,100.02
1495.00,99.97
1494.00,99.96
1493.00,99.94
1492.00,99.92
1491.00,99.92
1490.00,99.91
1489.00,99.86
1488.00,99.81
1487.00,99.76
1486.00,99.75
1485.00,99.74
1484.00,99.68
1483.00,99.53
1482.00,99.40
1481.00,99.45
1480.00,99.62
1479.00,99.75
1478.00,99.77
1477.00,99.81
1476.00,100.03
1475.00,100.38
1474.00,100.68
1473.00,100.66
1472.00,100.31
1471.00,99.97
1470.00,99.85
1469.00,99.86
1468.00,99.87
1467.00,99.88
1466.00,99.90
1465.00,99.93
1464.00,99.93
1463.00,99.92
1462.00,99.86
1461.00,99.69
1460.00,99.43
1459.00,99.32
1458.00,99.37
1457.00,99.27
1456.00,99.07
1455.00,99.17
1454.00,99.46
1453.00,99.64
1452.00,99.72
1451.00,99.80
1450.00,99.87
1449.00,99.91
1448.00,99.90
1447.00,99.85
1446.00,99.80
1445.00,99.78
1444.00,99.77
1443.00,99.77
1442.00,99.80
1441.00,99.82
1440.00,99.71
1439.00,99.45
1438.00,99.19
1437.00,99.05
1436.00,99.08
1435.00,99.30
1434.00,99.54
1433.00,99.62
1432.00,99.58
1431.00,99.55
1430.00,99.57
1429.00,99.62
1428.00,99.68
1427.00,99.67
1426.00,99.49
1425.00,99.26
1424.00,99.20
1423.00,99.34
1422.00,99.43
1421.00,99.37
1420.00,99.26
1419.00,99.24
1418.00,99.33
1417.00,99.53
1416.00,99.68
1415.00,99.73
1414.00,99.70
1413.00,99.63
1412.00,99.57
1411.00,99.59
1410.00,99.67
1409.00,99.75
1408.00,99.78
1407.00,99.77
1406.00,99.74
1405.00,99.71
1404.00,99.73
1403.00,99.80
1402.00,99.88
1401.00,99.91
1400.00,99.91
1399.00,99.90
1398.00,99.93
1397.00,100.03
1396.00,100.21
1395.00,100.34
1394.00,100.30
1393.00,100.08
1392.00,99.87
1391.00,99.82
1390.00,99.93
1389.00,100.10
1388.00,100.17
1387.00,100.08
1386.00,99.91
1385.00,99.79
1384.00,99.73
1383.00,99.70
1382.00,99.67
1381.00,99.63
1380.00,99.60
1379.00,99.58
1378.00,99.55
1377.00,99.47
1376.00,99.40
1375.00,99.45
1374.00,99.61
1373.00,99.76
1372.00,99.79
1371.00,99.69
1370.00,99.57
1369.00,99.51
1368.00,99.56
1367.00,99.66
1366.00,99.75
1365.00,99.77
1364.00,99.78
1363.00,99.84
1362.00,99.96
1361.00,100.02
1360.00,99.98
1359.00,99.85
1358.00,99.73
1357.00,99.65
1356.00,99.60
1355.00,99.59
1354.00,99.62
1353.00,99.68
1352.00,99.67
1351.00,99.61
1350.00,99.56
1349.00,99.57
1348.00,99.63
1347.00,99.68
1346.00,99.70
1345.00,99.73
1344.00,99.73
1343.00,99.69
1342.00,99.60
1341.00,99.54
1340.00,99.57
1339.00,99.66
1338.00,99.75
1337.00,99.79
1336.00,99.76
1335.00,99.72
1334.00,99.70
1333.00,99.69
1332.00,99.68
1331.00,99.67
1330.00,99.67
1329.00,99.68
1328.00,99.68
1327.00,99.68
1326.00,99.68
1325.00,99.69
1324.00,99.69
1323.00,99.66
1322.00,99.60
1321.00,99.50
1320.00,99.41
1319.00,99.41
1318.00,99.50
1317.00,99.62
1316.00,99.68
1315.00,99.68
1314.00,99.66
1313.00,99.66
1312.00,99.68
1311.00,99.69
1310.00,99.69
1309.00,99.69
1308.00,99.70
1307.00,99.72
1306.00,99.74
1305.00,99.76
1304.00,99.76
1303.00,99.75
1302.00,99.74
1301.00,99.73
1300.00,99.72
1299.00,99.72
1298.00,99.72
1297.00,99.73
1296.00,99.72
1295.00,99.72
1294.00,99.71
1293.00,99.71
1292.00,99.71
1291.00,99.71
1290.00,99.71
1289.00,99.70
1288.00,99.68
1287.00,99.68
1286.00,99.68
1285.00,99.68
1284.00,99.68
1283.00,99.68
1282.00,99.68
1281.00,99.69
1280.00,99.68
1279.00,99.67
1278.00,99.68
1277.00,99.69
1276.00,99.69
1275.00,99.67
1274.00,99.64
1273.00,99.59
1272.00,99.55
1271.00,99.55
1270.00,99.58
1269.00,99.62
1268.00,99.64
1267.00,99.65
1266.00,99.65
1265.00,99.65
1264.00,99.63
1263.00,99.60
1262.00,99.57
1261.00,99.55
1260.00,99.56
1259.00,99.59
1258.00,99.62
1257.00,99.64
1256.00,99.64
1255.00,99.63
1254.00,99.64
1253.00,99.65
1252.00,99.65
1251.00,99.65
1250.00,99.65
1249.00,99.65
1248.00,99.64
1247.00,99.61
1246.00,99.59
1245.00,99.58
1244.00,99.58
1243.00,99.59
1242.00,99.62
1241.00,99.63
1240.00,99.63
1239.00,99.62
1238.00,99.61
1237.00,99.61
1236.00,99.59
1235.00,99.58
1234.00,99.58
1233.00,99.58
1232.00,99.58
1231.00,99.58
1230.00,99.58
1229.00,99.58
1228.00,99.58
1227.00,99.57
1226.00,99.57
1225.00,99.58
1224.00,99.58
1223.00,99.58
1222.00,99.59
1221.00,99.59
1220.00,99.57
1219.00,99.56
1218.00,99.56
1217.00,99.56
1216.00,99.55
1215.00,99.55
1214.00,99.54
1213.00,99.54
1212.00,99.53
1211.00,99.53
1210.00,99.54
1209.00,99.54
1208.00,99.54
1207.00,99.53
1206.00,99.52
1205.00,99.52
1204.00,99.51
1203.00,99.51
1202.00,99.51
1201.00,99.51
1200.00,99.50
1199.00,99.49
1198.00,99.49
1197.00,99.49
1196.00,99.49
1195.00,99.50
1194.00,99.50
1193.00,99.51
1192.00,99.50
1191.00,99.49
1190.00,99.48
1189.00,99.47
1188.00,99.45
1187.00,99.44
1186.00,99.45
1185.00,99.47
1184.00,99.48
1183.00,99.49
1182.00,99.50
1181.00,99.50
1180.00,99.50
1179.00,99.48
1178.00,99.47
1177.00,99.46
1176.00,99.45
1175.00,99.44
1174.00,99.44
1173.00,99.46
1172.00,99.47
1171.00,99.48
1170.00,99.48
1169.00,99.48
1168.00,99.47
1167.00,99.46
1166.00,99.45
1165.00,99.45
1164.00,99.45
1163.00,99.46
1162.00,99.46
1161.00,99.46
1160.00,99.45
1159.00,99.44
1158.00,99.44
1157.00,99.43
1156.00,99.42
1155.00,99.40
1154.00,99.40
1153.00,99.42
1152.00,99.44
1151.00,99.45
1150.00,99.46
1149.00,99.45
1148.00,99.45
1147.00,99.44
1146.00,99.44
1145.00,99.42
1144.00,99.40
1143.00,99.38
1142.00,99.39
1141.00,99.40
1140.00,99.42
1139.00,99.43
1138.00,99.43
1137.00,99.42
1136.00,99.40
1135.00,99.39
1134.00,99.40
1133.00,99.41
1132.00,99.42
1131.00,99.42
1130.00,99.42
1129.00,99.40
1128.00,99.38
1127.00,99.36
1126.00,99.36
1125.00,99.37
1124.00,99.37
1123.00,99.36
1122.00,99.36
1121.00,99.36
1120.00,99.35
1119.00,99.36
1118.00,99.37
1117.00,99.37
1116.00,99.35
1115.00,99.33
1114.00,99.31
1113.00,99.30
1112.00,99.29
1111.00,99.28
1110.00,99.28
1109.00,99.29
1108.00,99.28
1107.00,99.28
1106.00,99.28
1105.00,99.28
1104.00,99.25
1103.00,99.23
1102.00,99.22
1101.00,99.23
1100.00,99.25
1099.00,99.26
1098.00,99.27
1097.00,99.25
1096.00,99.22
1095.00,99.19
1094.00,99.18
1093.00,99.17
1092.00,99.16
1091.00,99.14
1090.00,99.14
1089.00,99.14
1088.00,99.14
1087.00,99.15
1086.00,99.17
1085.00,99.17
1084.00,99.15
1083.00,99.13
1082.00,99.13
1081.00,99.13
1080.00,99.12
1079.00,99.10
1078.00,99.09
1077.00,99.08
1076.00,99.06
1075.00,99.05
1074.00,99.06
1073.00,99.07
1072.00,99.07
1071.00,99.06
1070.00,99.07
1069.00,99.10
1068.00,99.10
1067.00,99.08
1066.00,99.07
1065.00,99.06
1064.00,99.04
1063.00,99.03
1062.00,99.03
1061.00,99.03
1060.00,99.01
1059.00,98.98
1058.00,98.96
1057.00,98.94
1056.00,98.92
1055.00,98.90
1054.00,98.88
1053.00,98.88
1052.00,98.89
1051.00,98.90
1050.00,98.91
1049.00,98.89
1048.00,98.85
1047.00,98.81
1046.00,98.79
1045.00,98.78
1044.00,98.79
1043.00,98.83
1042.00,98.89
1041.00,98.93
1040.00,98.93
1039.00,98.91
1038.00,98.91
1037.00,98.93
1036.00,98.91
1035.00,98.88
1034.00,98.83
1033.00,98.78
1032.00,98.72
1031.00,98.67
1030.00,98.65
1029.00,98.66
1028.00,98.68
1027.00,98.72
1026.00,98.77
1025.00,98.79
1024.00,98.76
1023.00,98.73
1022.00,98.72
1021.00,98.70
1020.00,98.65
1019.00,98.60
1018.00,98.60
1017.00,98.63
1016.00,98.63
1015.00,98.59
1014.00,98.54
1013.00,98.53
1012.00,98.54
1011.00,98.57
1010.00,98.60
1009.00,98.59
1008.00,98.53
1007.00,98.45
1006.00,98.41
1005.00,98.38
1004.00,98.36
1003.00,98.33
1002.00,98.33
1001.00,98.36
1000.00,98.39
999.00,98.43
998.00,98.47
997.00,98.47
996.00,98.43
995.00,98.35
994.00,98.29
993.00,98.27
992.00,98.28
991.00,98.32
990.00,98.40
989.00,98.44
988.00,98.40
987.00,98.32
986.00,98.27
985.00,98.27
984.00,98.27
983.00,98.26
982.00,98.24
981.00,98.18
980.00,98.07
979.00,97.95
978.00,97.89
977.00,97.90
976.00,97.95
975.00,98.00
974.00,98.06
973.00,98.13
972.00,98.19
971.00,98.23
970.00,98.24
969.00,98.16
968.00,98.02
967.00,97.89
966.00,97.79
965.00,97.71
964.00,97.64
963.00,97.65
962.00,97.75
961.00,97.83
960.00,97.80
959.00,97.73
958.00,97.73
957.00,97.78
956.00,97.81
955.00,97.86
954.00,97.98
953.00,98.07
952.00,98.03
951.00,97.91
950.00,97.86
949.00,97.87
948.00,97.82
947.00,97.72
946.00,97.66
945.00,97.60
944.00,97.43
943.00,97.17
942.00,96.94
941.00,96.72
940.00,96.44
939.00,96.14
938.00,95.97
937.00,95.97
936.00,96.23
935.00,96.85
934.00,97.76
933.00,98.60
932.00,99.04
931.00,99.08
930.00,98.98
929.00,98.88
928.00,98.68
927.00,98.31
926.00,97.84
925.00,97.26
924.00,96.66
923.00,96.30
922.00,96.31
921.00,96.38
920.00,96.35
919.00,96.58
918.00,97.22
917.00,97.79
916.00,97.64
915.00,97.05
914.00,96.85
913.00,97.18
912.00,97.48
911.00,97.32
910.00,97.00
909.00,96.89
908.00,97.23
907.00,98.32
906.00,99.54
905.00,99.74
904.00,98.26
903.00,95.99
902.00,94.88
901.00,95.15
900.00,95.24
899.00,94.23
898.00,92.67
897.00,90.98
896.00,89.30
895.00,89.04
894.00,91.10
893.00,93.84
892.00,96.36
891.00,98.96
890.00,100.75
889.00,102.32
888.00,101.66
887.00,96.94
886.00,93.58
885.00,91.88
884.00,89.77
883.00,89.55
882.00,90.77
881.00,91.42
880.00,90.96
879.00,88.95
878.00,91.89
877.00,98.67
876.00,109.44
875.00,124.83
874.00,132.46
873.00,154.81
872.00,173.61
871.00,141.07
870.00,118.95
869.00,130.13
868.00,156.03
867.00,146.75
866.00,119.88
865.00,118.89
864.00,106.09
863.00,67.29
862.00,69.00
861.00,82.18
860.00,158.30
859.00,181.14
858.00,184.69
857.00,389.42
856.00,259.00
855.00,328.86
854.00,177.14
853.00,85.82
852.00,89.97
851.00,69.87
850.00,179.04
849.00,570.64
848.00,211.79
847.00,106.86
846.00,134.71
845.00,143.19
844.00,148.60
843.00,156.56
842.00,21.11
841.00,37.89
840.00,81.53
839.00,46.95
838.00,22.44
837.00,117.51
836.00,250.83
835.00,83.88
834.00,3.09
833.00,70.20
832.00,149.00
831.00,104.45
830.00,28.47
829.00,144.32
828.00,822.11
827.00,339.32
826.00,83.22
825.00,366.00
824.00,222.93
823.00,200.37
822.00,116.13
821.00,127.64
820.00,125.63
819.00,200.00
818.00,189.43
817.00,356.19
816.00,688.62
815.00,223.78
814.00,63.77
813.00,272.51
812.00,318.56
811.00,140.89
810.00,22.72
809.00,72.88
808.00,158.65
807.00,67.31
806.00,11.94
805.00,145.47
804.00,142.92
803.00,83.26
802.00,45.44
801.00,62.23
800.00,71.96
799.00,77.21
798.00,42.96
797.00,26.74
796.00,155.29
795.00,57.62
794.00,-4.01
793.00,74.34
792.00,253.12
791.00,90.12
790.00,32.46
789.00,117.27
788.00,216.50
787.00,196.39
786.00,50.30
785.00,155.85
784.00,251.61
783.00,208.23
782.00,137.00
781.00,256.32
780.00,168.04
779.00,117.00
778.00,63.69
777.00,73.88
776.00,130.84
775.00,92.90
774.00,94.61
773.00,418.17
772.00,211.50
771.00,281.87
770.00,76.19
769.00,188.14
768.00,360.28
767.00,236.77
766.00,55.31
765.00,77.85
764.00,112.32
763.00,68.43
762.00,52.04
761.00,173.70
760.00,244.67
759.00,317.89
758.00,215.15
757.00,185.25
756.00,102.88
755.00,50.86
754.00,46.84
753.00,109.09
752.00,142.01
751.00,99.58
750.00,81.69
749.00,160.63
748.00,152.80
747.00,49.06
746.00,48.91
745.00,176.63
744.00,132.84
743.00,163.05
742.00,191.04
741.00,223.56
740.00,214.46
739.00,229.64
738.00,57.73
737.00,220.05
736.00,146.34
735.00,115.05
734.00,99.29
733.00,133.46
732.00,154.32
731.00,231.95
730.00,126.70
729.00,258.64
728.00,540.28
727.00,394.18
726.00,125.67
725.00,366.55
724.00,217.56
723.00,103.98
722.00,66.67
721.00,224.20
720.00,551.58
719.00,256.15
718.00,98.70
717.00,413.99
716.00,141.52
715.00,121.99
714.00,133.11
713.00,181.05
712.00,140.74
711.00,91.59
710.00,36.88
709.00,138.90
708.00,439.65
707.00,202.94
706.00,132.73
705.00,147.71
704.00,106.53
703.00,102.90
702.00,88.00
701.00,97.95
700.00,119.34
699.00,177.54
698.00,66.61
697.00,109.19
696.00,127.36
695.00,234.95
694.00,101.49
693.00,126.73
692.00,264.11
691.00,98.25
690.00,58.23
689.00,120.47
688.00,126.60
687.00,129.25
686.00,92.52
685.00,185.44
684.00,319.58
683.00,159.20
682.00,50.91
681.00,144.20
680.00,149.75
679.00,97.18
678.00,73.09
677.00,227.00
676.00,290.93
675.00,387.77
674.00,317.64
673.00,142.93
672.00,96.27
671.00,72.30
670.00,73.73
669.00,69.28
668.00,111.58
667.00,272.02
666.00,87.05
665.00,353.69
664.00,193.42
663.00,118.36
662.00,119.24
661.00,147.22
660.00,92.58
659.00,69.58
658.00,284.52
657.00,81.01
656.00,87.00
655.00,72.84
654.00,22.78
653.00,116.33
652.00,117.72
651.00,99.70
650.00,60.56
649.00,99.63
648.00,116.85
647.00,84.87
646.00,81.22
645.00,174.80
644.00,268.70
643.00,339.58
642.00,121.37
641.00,201.56
640.00,375.33
639.00,119.89
638.00,29.24
637.00,85.62
636.00,203.25
635.00,144.33
634.00,81.60
633.00,270.56
632.00,213.89
631.00,111.84
630.00,40.71
629.00,104.45
628.00,232.19
627.00,94.40
626.00,9.69
625.00,88.23
624.00,176.63
623.00,165.17
622.00,121.70
621.00,594.43
620.00,224.78
619.00,79.42
618.00,29.89
617.00,54.19
616.00,101.98
615.00,104.92
614.00,94.98
613.00,220.21
612.00,286.62
611.00,229.22
610.00,330.60
609.00,314.73
608.00,312.47
607.00,189.43
606.00,56.67
605.00,122.22
604.00,285.30
603.00,160.39
602.00,79.43
601.00,282.47
600.00,214.79
599.00,95.61
598.00,38.84
597.00,54.47
596.00,111.84
595.00,111.28
594.00,61.01
593.00,286.24
592.00,251.97
591.00,656.09
590.00,175.96
589.00,197.20
588.00,341.45
587.00,127.23
586.00,33.80
585.00,100.05
584.00,209.56
583.00,347.26
582.00,147.94
581.00,547.17
580.00,337.97
579.00,485.20
578.00,87.69
577.00,222.02
576.00,268.02
575.00,506.40
574.00,42.67
573.00,344.14
572.00,1585.64
571.00,246.42
570.00,-5.94
569.00,278.90
568.00,2413.57
567.00,203.02
566.00,6.40
565.00,196.42
564.00,274.07
563.00,185.18
562.00,183.75
561.00,1193.65
560.00,343.65
559.00,498.24
558.00,99.55
557.00,66.94
556.00,115.56
555.00,147.93
554.00,51.43
553.00,87.45
552.00,122.06
551.00,91.84
550.00,92.69
549.00,150.70
548.00,114.65
547.00,126.38
546.00,66.61
545.00,164.89
544.00,184.70
543.00,42.60
542.00,15.85
541.00,71.69
540.00,193.43
539.00,111.85
538.00,67.03
537.00,185.29
536.00,100.20
535.00,55.87
534.00,45.68
533.00,92.72
532.00,154.11
531.00,158.78
530.00,42.35
529.00,95.84
528.00,398.54
527.00,135.56
526.00,34.93
525.00,158.27
524.00,128.30
523.00,88.90
522.00,-0.30
521.00,30.47
520.00,110.81
519.00,22.96
518.00,34.39
517.00,38.57
516.00,162.57
515.00,78.91
514.00,39.17
513.00,112.76
512.00,161.52
511.00,87.27
510.00,69.12
509.00,361.51
508.00,220.52
507.00,419.68
506.00,138.59
505.00,256.58
504.00,335.99
503.00,290.50
502.00,237.95
501.00,228.63
500.00,153.49
499.00,97.87
498.00,56.68
497.00,89.53
496.00,121.14
495.00,140.09
494.00,102.22
493.00,158.83
492.00,105.13
491.00,100.38
490.00,141.53
489.00,86.94
488.00,127.84
487.00,128.53
486.00,29.33
485.00,107.55
484.00,94.70
483.00,118.61
482.00,415.12
481.00,200.01
480.00,143.56
479.00,127.47
478.00,85.69
477.00,413.29
476.00,247.62
475.00,107.18
474.00,35.02
473.00,81.23
472.00,232.52
471.00,78.46
470.00,29.57
469.00,100.90
468.00,534.21
467.00,84.29
466.00,6.37
465.00,81.10
464.00,169.63
463.00,100.20
462.00,15.54
461.00,165.41
460.00,435.92
459.00,164.07
458.00,52.38
457.00,153.67
456.00,200.25
455.00,60.28
454.00,33.22
453.00,44.48
452.00,92.77
451.00,103.78
450.00,68.81
