Created as New Dataset,Sample 007 By Administrator Date Monday, October 13 2025
cm-1,%T
4000.00,94.34
3999.00,94.34
3998.00,94.34
3997.00,94.34
3996.00,94.34
3995.00,94.34
3994.00,94.33
3993.00,94.33
3992.00,94.33
3991.00,94.34
3990.00,94.34
3989.00,94.35
3988.00,94.35
3987.00,94.35
3986.00,94.35
3985.00,94.34
3984.00,94.34
3983.00,94.34
3982.00,94.34
3981.00,94.34
3980.00,94.34
3979.00,94.35
3978.00,94.35
3977.00,94.36
3976.00,94.36
3975.00,94.36
3974.00,94.35
3973.00,94.35
3972.00,94.35
3971.00,94.35
3970.00,94.35
3969.00,94.34
3968.00,94.33
3967.00,94.33
3966.00,94.33
3965.00,94.34
3964.00,94.34
3963.00,94.34
3962.00,94.34
3961.00,94.33
3960.00,94.33
3959.00,94.33
3958.00,94.34
3957.00,94.34
3956.00,94.34
3955.00,94.34
3954.00,94.34
3953.00,94.33
3952.00,94.32
3951.00,94.32
3950.00,94.32
3949.00,94.32
3948.00,94.32
3947.00,94.32
3946.00,94.32
3945.00,94.32
3944.00,94.31
3943.00,94.31
3942.00,94.31
3941.00,94.31
3940.00,94.32
3939.00,94.32
3938.00,94.33
3937.00,94.32
3936.00,94.32
3935.00,94.32
3934.00,94.32
3933.00,94.33
3932.00,94.33
3931.00,94.33
3930.00,94.33
3929.00,94.33
3928.00,94.34
3927.00,94.34
3926.00,94.34
3925.00,94.33
3924.00,94.33
3923.00,94.32
3922.00,94.31
3921.00,94.31
3920.00,94.32
3919.00,94.32
3918.00,94.32
3917.00,94.31
3916.00,94.31
3915.00,94.32
3914.00,94.32
3913.00,94.33
3912.00,94.33
3911.00,94.32
3910.00,94.29
3909.00,94.27
3908.00,94.24
3907.00,94.22
3906.00,94.21
3905.00,94.21
3904.00,94.23
3903.00,94.26
3902.00,94.28
3901.00,94.29
3900.00,94.29
3899.00,94.28
3898.00,94.30
3897.00,94.31
3896.00,94.33
3895.00,94.34
3894.00,94.36
3893.00,94.36
3892.00,94.32
3891.00,94.27
3890.00,94.26
3889.00,94.29
3888.00,94.36
3887.00,94.40
3886.00,94.38
3885.00,94.33
3884.00,94.30
3883.00,94.31
3882.00,94.33
3881.00,94.32
3880.00,94.28
3879.00,94.26
3878.00,94.29
3877.00,94.33
3876.00,94.36
3875.00,94.38
3874.00,94.39
3873.00,94.45
3872.00,94.53
3871.00,94.57
3870.00,94.52
3869.00,94.45
3868.00,94.41
3867.00,94.42
3866.00,94.48
3865.00,94.52
3864.00,94.51
3863.00,94.46
3862.00,94.43
3861.00,94.43
3860.00,94.40
3859.00,94.31
3858.00,94.13
3857.00,93.93
3856.00,93.83
3855.00,93.92
3854.00,94.08
3853.00,94.24
3852.00,94.40
3851.00,94.50
3850.00,94.54
3849.00,94.53
3848.00,94.50
3847.00,94.46
3846.00,94.43
3845.00,94.42
3844.00,94.42
3843.00,94.43
3842.00,94.46
3841.00,94.49
3840.00,94.50
3839.00,94.50
3838.00,94.47
3837.00,94.44
3836.00,94.43
3835.00,94.44
3834.00,94.44
3833.00,94.41
3832.00,94.37
3831.00,94.37
3830.00,94.39
3829.00,94.43
3828.00,94.44
3827.00,94.43
3826.00,94.41
3825.00,94.41
3824.00,94.44
3823.00,94.51
3822.00,94.54
3821.00,94.48
3820.00,94.44
3819.00,94.47
3818.00,94.53
3817.00,94.54
3816.00,94.48
3815.00,94.39
3814.00,94.36
3813.00,94.34
3812.00,94.33
3811.00,94.32
3810.00,94.31
3809.00,94.30
3808.00,94.28
3807.00,94.26
3806.00,94.26
3805.00,94.29
3804.00,94.33
3803.00,94.36
3802.00,94.35
3801.00,94.30
3800.00,94.32
3799.00,94.39
3798.00,94.44
3797.00,94.44
3796.00,94.38
3795.00,94.33
3794.00,94.31
3793.00,94.31
3792.00,94.31
3791.00,94.30
3790.00,94.29
3789.00,94.29
3788.00,94.30
3787.00,94.34
3786.00,94.35
3785.00,94.34
3784.00,94.32
3783.00,94.32
3782.00,94.32
3781.00,94.33
3780.00,94.33
3779.00,94.32
3778.00,94.30
3777.00,94.28
3776.00,94.27
3775.00,94.28
3774.00,94.28
3773.00,94.28
3772.00,94.29
3771.00,94.30
3770.00,94.29
3769.00,94.28
3768.00,94.29
3767.00,94.32
3766.00,94.34
3765.00,94.31
3764.00,94.28
3763.00,94.28
3762.00,94.28
3761.00,94.25
3760.00,94.19
3759.00,94.08
3758.00,93.90
3757.00,93.66
3756.00,93.35
3755.00,92.95
3754.00,92.38
3753.00,91.48
3752.00,90.09
3751.00,88.14
3750.00,85.84
3749.00,83.48
3748.00,81.12
3747.00,78.53
3746.00,75.49
3745.00,72.17
3744.00,69.13
3743.00,66.54
3742.00,63.94
3741.00,61.10
3740.00,58.36
3739.00,56.16
3738.00,54.46
3737.00,53.10
3736.00,52.15
3735.00,51.65
3734.00,51.19
3733.00,50.27
3732.00,49.00
3731.00,47.91
3730.00,47.42
3729.00,47.60
3728.00,48.30
3727.00,49.31
3726.00,50.43
3725.00,51.54
3724.00,52.63
3723.00,53.77
3722.00,55.06
3721.00,56.57
3720.00,58.67
3719.00,62.11
3718.00,67.24
3717.00,72.94
3716.00,76.41
3715.00,75.35
3714.00,70.17
3713.00,63.88
3712.00,59.25
3711.00,56.92
3710.00,56.03
3709.00,55.55
3708.00,55.26
3707.00,55.15
3706.00,55.39
3705.00,56.04
3704.00,57.15
3703.00,58.50
3702.00,59.82
3701.00,60.90
3700.00,61.83
3699.00,62.79
3698.00,63.75
3697.00,64.70
3696.00,65.53
3695.00,66.33
3694.00,67.15
3693.00,68.29
3692.00,69.89
3691.00,71.88
3690.00,73.80
3689.00,75.05
3688.00,75.67
3687.00,76.02
3686.00,76.64
3685.00,77.52
3684.00,78.58
3683.00,79.56
3682.00,80.45
3681.00,81.25
3680.00,81.94
3679.00,82.53
3678.00,83.12
3677.00,83.92
3676.00,84.91
3675.00,85.91
3674.00,86.74
3673.00,87.44
3672.00,88.06
3671.00,88.67
3670.00,89.17
3669.00,89.60
3668.00,90.02
3667.00,90.44
3666.00,90.81
3665.00,91.13
3664.00,91.37
3663.00,91.56
3662.00,91.69
3661.00,91.78
3660.00,91.83
3659.00,91.83
3658.00,91.78
3657.00,91.68
3656.00,91.55
3655.00,91.42
3654.00,91.27
3653.00,91.08
3652.00,90.78
3651.00,90.29
3650.00,89.54
3649.00,88.53
3648.00,87.34
3647.00,85.99
3646.00,84.48
3645.00,82.87
3644.00,81.20
3643.00,79.49
3642.00,77.75
3641.00,76.04
3640.00,74.41
3639.00,72.89
3638.00,71.43
3637.00,69.93
3636.00,68.39
3635.00,66.84
3634.00,65.38
3633.00,64.05
3632.00,62.75
3631.00,61.44
3630.00,60.26
3629.00,59.40
3628.00,58.91
3627.00,58.65
3626.00,58.50
3625.00,58.54
3624.00,59.06
3623.00,60.28
3622.00,62.05
3621.00,63.90
3620.00,65.36
3619.00,66.49
3618.00,68.11
3617.00,71.26
3616.00,76.19
3615.00,81.58
3614.00,84.80
3613.00,83.92
3612.00,79.53
3611.00,74.01
3610.00,69.52
3609.00,66.71
3608.00,65.21
3607.00,64.35
3606.00,63.74
3605.00,63.17
3604.00,62.59
3603.00,62.14
3602.00,61.94
3601.00,62.04
3600.00,62.25
3599.00,62.42
3598.00,62.56
3597.00,62.82
3596.00,63.19
3595.00,63.67
3594.00,64.27
3593.00,65.13
3592.00,66.25
3591.00,67.55
3590.00,68.91
3589.00,70.20
3588.00,71.39
3587.00,72.53
3586.00,73.87
3585.00,75.44
3584.00,77.09
3583.00,78.53
3582.00,79.59
3581.00,80.36
3580.00,80.89
3579.00,81.20
3578.00,81.24
3577.00,81.14
3576.00,81.05
3575.00,81.13
3574.00,81.33
3573.00,81.63
3572.00,81.91
3571.00,82.18
3570.00,82.45
3569.00,82.77
3568.00,83.14
3567.00,83.53
3566.00,83.95
3565.00,84.45
3564.00,84.98
3563.00,85.51
3562.00,85.97
3561.00,86.41
3560.00,86.85
3559.00,87.29
3558.00,87.73
3557.00,88.17
3556.00,88.59
3555.00,88.97
3554.00,89.32
3553.00,89.64
3552.00,89.95
3551.00,90.24
3550.00,90.50
3549.00,90.74
3548.00,90.96
3547.00,91.16
3546.00,91.32
3545.00,91.48
3544.00,91.64
3543.00,91.78
3542.00,91.92
3541.00,92.06
3540.00,92.19
3539.00,92.33
3538.00,92.46
3537.00,92.60
3536.00,92.74
3535.00,92.87
3534.00,93.02
3533.00,93.18
3532.00,93.34
3531.00,93.49
3530.00,93.62
3529.00,93.71
3528.00,93.74
3527.00,93.72
3526.00,93.66
3525.00,93.60
3524.00,93.55
3523.00,93.49
3522.00,93.44
3521.00,93.41
3520.00,93.39
3519.00,93.37
3518.00,93.36
3517.00,93.36
3516.00,93.37
3515.00,93.37
3514.00,93.39
3513.00,93.41
3512.00,93.45
3511.00,93.48
3510.00,93.51
3509.00,93.55
3508.00,93.60
3507.00,93.65
3506.00,93.71
3505.00,93.76
3504.00,93.81
3503.00,93.83
3502.00,93.84
3501.00,93.87
3500.00,93.91
3499.00,93.95
3498.00,93.98
3497.00,94.00
3496.00,94.01
3495.00,94.01
3494.00,94.01
3493.00,94.03
3492.00,94.05
3491.00,94.06
3490.00,94.07
3489.00,94.08
3488.00,94.09
3487.00,94.08
3486.00,94.08
3485.00,94.09
3484.00,94.10
3483.00,94.12
3482.00,94.12
3481.00,94.12
3480.00,94.12
3479.00,94.12
3478.00,94.11
3477.00,94.12
3476.00,94.12
3475.00,94.12
3474.00,94.12
3473.00,94.12
3472.00,94.13
3471.00,94.13
3470.00,94.13
3469.00,94.13
3468.00,94.13
3467.00,94.13
3466.00,94.13
3465.00,94.13
3464.00,94.14
3463.00,94.14
3462.00,94.14
3461.00,94.14
3460.00,94.14
3459.00,94.14
3458.00,94.15
3457.00,94.15
3456.00,94.16
3455.00,94.16
3454.00,94.15
3453.00,94.15
3452.00,94.15
3451.00,94.15
3450.00,94.16
3449.00,94.17
3448.00,94.18
3447.00,94.18
3446.00,94.17
3445.00,94.17
3444.00,94.17
3443.00,94.17
3442.00,94.17
3441.00,94.17
3440.00,94.17
3439.00,94.16
3438.00,94.16
3437.00,94.15
3436.00,94.15
3435.00,94.15
3434.00,94.14
3433.00,94.14
3432.00,94.14
3431.00,94.14
3430.00,94.14
3429.00,94.14
3428.00,94.14
3427.00,94.14
3426.00,94.13
3425.00,94.14
3424.00,94.14
3423.00,94.15
3422.00,94.16
3421.00,94.16
3420.00,94.15
3419.00,94.14
3418.00,94.14
3417.00,94.13
3416.00,94.14
3415.00,94.13
3414.00,94.13
3413.00,94.13
3412.00,94.13
3411.00,94.13
3410.00,94.13
3409.00,94.14
3408.00,94.14
3407.00,94.13
3406.00,94.13
3405.00,94.12
3404.00,94.12
3403.00,94.13
3402.00,94.13
3401.00,94.13
3400.00,94.14
3399.00,94.14
3398.00,94.13
3397.00,94.13
3396.00,94.13
3395.00,94.13
3394.00,94.13
3393.00,94.13
3392.00,94.13
3391.00,94.13
3390.00,94.13
3389.00,94.13
3388.00,94.13
3387.00,94.13
3386.00,94.13
3385.00,94.13
3384.00,94.14
3383.00,94.13
3382.00,94.12
3381.00,94.12
3380.00,94.12
3379.00,94.12
3378.00,94.12
3377.00,94.11
3376.00,94.11
3375.00,94.11
3374.00,94.11
3373.00,94.11
3372.00,94.11
3371.00,94.10
3370.00,94.10
3369.00,94.10
3368.00,94.10
3367.00,94.11
3366.00,94.11
3365.00,94.11
3364.00,94.11
3363.00,94.11
3362.00,94.10
3361.00,94.09
3360.00,94.08
3359.00,94.08
3358.00,94.08
3357.00,94.09
3356.00,94.09
3355.00,94.09
3354.00,94.09
3353.00,94.09
3352.00,94.09
3351.00,94.09
3350.00,94.09
3349.00,94.10
3348.00,94.10
3347.00,94.10
3346.00,94.10
3345.00,94.10
3344.00,94.10
3343.00,94.10
3342.00,94.09
3341.00,94.09
3340.00,94.10
3339.00,94.10
3338.00,94.11
3337.00,94.12
3336.00,94.12
3335.00,94.12
3334.00,94.12
3333.00,94.12
3332.00,94.12
3331.00,94.11
3330.00,94.10
3329.00,94.10
3328.00,94.10
3327.00,94.10
3326.00,94.10
3325.00,94.11
3324.00,94.11
3323.00,94.10
3322.00,94.10
3321.00,94.10
3320.00,94.09
3319.00,94.09
3318.00,94.08
3317.00,94.09
3316.00,94.09
3315.00,94.09
3314.00,94.08
3313.00,94.08
3312.00,94.08
3311.00,94.08
3310.00,94.08
3309.00,94.09
3308.00,94.09
3307.00,94.08
3306.00,94.08
3305.00,94.08
3304.00,94.07
3303.00,94.07
3302.00,94.08
3301.00,94.08
3300.00,94.09
3299.00,94.09
3298.00,94.08
3297.00,94.08
3296.00,94.08
3295.00,94.08
3294.00,94.09
3293.00,94.09
3292.00,94.10
3291.00,94.10
3290.00,94.09
3289.00,94.09
3288.00,94.08
3287.00,94.08
3286.00,94.07
3285.00,94.07
3284.00,94.08
3283.00,94.08
3282.00,94.08
3281.00,94.08
3280.00,94.07
3279.00,94.07
3278.00,94.07
3277.00,94.08
3276.00,94.08
3275.00,94.08
3274.00,94.09
3273.00,94.09
3272.00,94.09
3271.00,94.09
3270.00,94.08
3269.00,94.07
3268.00,94.06
3267.00,94.04
3266.00,94.03
3265.00,94.04
3264.00,94.04
3263.00,94.05
3262.00,94.06
3261.00,94.07
3260.00,94.07
3259.00,94.07
3258.00,94.07
3257.00,94.07
3256.00,94.08
3255.00,94.08
3254.00,94.07
3253.00,94.07
3252.00,94.07
3251.00,94.06
3250.00,94.06
3249.00,94.06
3248.00,94.07
3247.00,94.07
3246.00,94.07
3245.00,94.08
3244.00,94.08
3243.00,94.07
3242.00,94.07
3241.00,94.06
3240.00,94.06
3239.00,94.05
3238.00,94.05
3237.00,94.05
3236.00,94.06
3235.00,94.06
3234.00,94.06
3233.00,94.06
3232.00,94.06
3231.00,94.06
3230.00,94.06
3229.00,94.06
3228.00,94.06
3227.00,94.06
3226.00,94.06
3225.00,94.06
3224.00,94.06
3223.00,94.06
3222.00,94.05
3221.00,94.05
3220.00,94.05
3219.00,94.04
3218.00,94.04
3217.00,94.04
3216.00,94.05
3215.00,94.05
3214.00,94.05
3213.00,94.04
3212.00,94.04
3211.00,94.04
3210.00,94.05
3209.00,94.05
3208.00,94.04
3207.00,94.04
3206.00,94.03
3205.00,94.04
3204.00,94.04
3203.00,94.04
3202.00,94.05
3201.00,94.05
3200.00,94.06
3199.00,94.06
3198.00,94.05
3197.00,94.05
3196.00,94.04
3195.00,94.03
3194.00,94.03
3193.00,94.02
3192.00,94.02
3191.00,94.01
3190.00,94.01
3189.00,94.02
3188.00,94.02
3187.00,94.02
3186.00,94.02
3185.00,94.03
3184.00,94.03
3183.00,94.03
3182.00,94.03
3181.00,94.03
3180.00,94.03
3179.00,94.03
3178.00,94.03
3177.00,94.02
3176.00,94.02
3175.00,94.01
3174.00,94.01
3173.00,94.02
3172.00,94.03
3171.00,94.03
3170.00,94.02
3169.00,94.02
3168.00,94.02
3167.00,94.02
3166.00,94.02
3165.00,94.02
3164.00,94.01
3163.00,94.01
3162.00,94.02
3161.00,94.02
3160.00,94.02
3159.00,94.02
3158.00,94.02
3157.00,94.02
3156.00,94.02
3155.00,94.02
3154.00,94.02
3153.00,94.02
3152.00,94.02
3151.00,94.01
3150.00,94.01
3149.00,94.01
3148.00,94.02
3147.00,94.01
3146.00,94.01
3145.00,94.02
3144.00,94.02
3143.00,94.02
3142.00,94.03
3141.00,94.03
3140.00,94.02
3139.00,94.02
3138.00,94.02
3137.00,94.02
3136.00,94.03
3135.00,94.03
3134.00,94.02
3133.00,94.02
3132.00,94.01
3131.00,94.00
3130.00,94.00
3129.00,94.01
3128.00,94.02
3127.00,94.02
3126.00,94.02
3125.00,94.02
3124.00,94.02
3123.00,94.02
3122.00,94.02
3121.00,94.03
3120.00,94.03
3119.00,94.03
3118.00,94.03
3117.00,94.03
3116.00,94.03
3115.00,94.02
3114.00,94.02
3113.00,94.01
3112.00,94.01
3111.00,94.01
3110.00,94.01
3109.00,94.01
3108.00,94.01
3107.00,94.01
3106.00,94.02
3105.00,94.02
3104.00,94.02
3103.00,94.02
3102.00,94.02
3101.00,94.02
3100.00,94.02
3099.00,94.02
3098.00,94.02
3097.00,94.02
3096.00,94.02
3095.00,94.02
3094.00,94.01
3093.00,94.01
3092.00,94.00
3091.00,93.99
3090.00,93.98
3089.00,93.98
3088.00,93.98
3087.00,93.99
3086.00,93.99
3085.00,94.00
3084.00,94.00
3083.00,94.00
3082.00,94.01
3081.00,94.02
3080.00,94.02
3079.00,94.02
3078.00,94.01
3077.00,94.01
3076.00,94.00
3075.00,94.00
3074.00,94.00
3073.00,94.00
3072.00,94.00
3071.00,94.00
3070.00,94.00
3069.00,94.01
3068.00,94.01
3067.00,94.02
3066.00,94.02
3065.00,94.02
3064.00,94.02
3063.00,94.01
3062.00,94.00
3061.00,94.00
3060.00,94.00
3059.00,94.00
3058.00,94.01
3057.00,94.01
3056.00,94.01
3055.00,94.00
3054.00,94.00
3053.00,94.00
3052.00,94.00
3051.00,94.00
3050.00,93.99
3049.00,93.98
3048.00,93.98
3047.00,93.98
3046.00,93.98
3045.00,93.99
3044.00,93.99
3043.00,93.99
3042.00,93.99
3041.00,93.98
3040.00,93.98
3039.00,93.98
3038.00,93.98
3037.00,93.99
3036.00,94.00
3035.00,94.00
3034.00,94.00
3033.00,94.00
3032.00,94.01
3031.00,94.00
3030.00,94.00
3029.00,94.00
3028.00,94.00
3027.00,94.00
3026.00,94.00
3025.00,94.00
3024.00,94.00
3023.00,93.99
3022.00,93.99
3021.00,94.00
3020.00,94.00
3019.00,94.01
3018.00,94.01
3017.00,94.02
3016.00,94.02
3015.00,94.02
3014.00,94.01
3013.00,94.01
3012.00,94.00
3011.00,94.00
3010.00,93.99
3009.00,93.99
3008.00,93.98
3007.00,93.98
3006.00,93.99
3005.00,93.99
3004.00,93.99
3003.00,93.99
3002.00,93.98
3001.00,93.98
3000.00,93.98
2999.00,93.98
2998.00,93.98
2997.00,93.98
2996.00,93.98
2995.00,93.98
2994.00,93.98
2993.00,93.99
2992.00,93.99
2991.00,94.00
2990.00,94.00
2989.00,94.00
2988.00,94.00
2987.00,93.99
2986.00,93.98
2985.00,93.98
2984.00,93.99
2983.00,93.99
2982.00,94.00
2981.00,94.01
2980.00,94.00
2979.00,94.00
2978.00,94.00
2977.00,94.01
2976.00,94.02
2975.00,94.02
2974.00,94.02
2973.00,94.01
2972.00,94.01
2971.00,94.01
2970.00,94.01
2969.00,94.02
2968.00,94.02
2967.00,94.02
2966.00,94.02
2965.00,94.02
2964.00,94.02
2963.00,94.02
2962.00,94.01
2961.00,94.01
2960.00,94.01
2959.00,94.01
2958.00,94.01
2957.00,94.01
2956.00,94.01
2955.00,94.00
2954.00,94.00
2953.00,94.00
2952.00,94.00
2951.00,94.00
2950.00,94.01
2949.00,94.02
2948.00,94.02
2947.00,94.01
2946.00,94.00
2945.00,94.00
2944.00,94.00
2943.00,93.99
2942.00,93.99
2941.00,94.00
2940.00,94.00
2939.00,94.00
2938.00,94.00
2937.00,94.00
2936.00,94.00
2935.00,94.00
2934.00,94.00
2933.00,94.00
2932.00,94.00
2931.00,94.00
2930.00,94.00
2929.00,94.01
2928.00,94.01
2927.00,94.01
2926.00,94.00
2925.00,93.99
2924.00,93.98
2923.00,93.97
2922.00,93.96
2921.00,93.96
2920.00,93.96
2919.00,93.96
2918.00,93.95
2917.00,93.95
2916.00,93.94
2915.00,93.93
2914.00,93.94
2913.00,93.95
2912.00,93.95
2911.00,93.95
2910.00,93.96
2909.00,93.96
2908.00,93.97
2907.00,93.98
2906.00,93.98
2905.00,93.98
2904.00,93.98
2903.00,93.98
2902.00,93.98
2901.00,93.98
2900.00,93.99
2899.00,93.99
2898.00,93.99
2897.00,93.99
2896.00,93.98
2895.00,93.98
2894.00,93.98
2893.00,93.98
2892.00,93.99
2891.00,93.99
2890.00,93.99
2889.00,93.99
2888.00,93.99
2887.00,93.98
2886.00,93.98
2885.00,93.98
2884.00,93.98
2883.00,93.98
2882.00,93.99
2881.00,93.99
2880.00,93.98
2879.00,93.98
2878.00,93.98
2877.00,93.99
2876.00,93.99
2875.00,94.00
2874.00,94.00
2873.00,93.99
2872.00,93.99
2871.00,93.98
2870.00,93.98
2869.00,93.99
2868.00,93.99
2867.00,93.99
2866.00,93.99
2865.00,93.99
2864.00,93.99
2863.00,93.99
2862.00,93.99
2861.00,93.99
2860.00,93.99
2859.00,93.98
2858.00,93.99
2857.00,93.99
2856.00,93.99
2855.00,93.99
2854.00,93.98
2853.00,93.98
2852.00,93.97
2851.00,93.96
2850.00,93.96
2849.00,93.96
2848.00,93.96
2847.00,93.96
2846.00,93.97
2845.00,93.97
2844.00,93.97
2843.00,93.97
2842.00,93.97
2841.00,93.97
2840.00,93.97
2839.00,93.97
2838.00,93.97
2837.00,93.97
2836.00,93.97
2835.00,93.97
2834.00,93.98
2833.00,93.98
2832.00,93.98
2831.00,93.98
2830.00,93.98
2829.00,93.98
2828.00,93.98
2827.00,93.97
2826.00,93.97
2825.00,93.97
2824.00,93.98
2823.00,93.98
2822.00,93.98
2821.00,93.98
2820.00,93.98
2819.00,93.98
2818.00,93.98
2817.00,93.98
2816.00,93.98
2815.00,93.98
2814.00,93.98
2813.00,93.97
2812.00,93.97
2811.00,93.97
2810.00,93.98
2809.00,93.99
2808.00,93.99
2807.00,93.99
2806.00,93.99
2805.00,94.00
2804.00,94.00
2803.00,93.99
2802.00,94.00
2801.00,94.00
2800.00,93.99
2799.00,93.99
2798.00,93.98
2797.00,93.98
2796.00,93.98
2795.00,93.98
2794.00,93.99
2793.00,93.99
2792.00,93.99
2791.00,93.99
2790.00,93.99
2789.00,93.99
2788.00,93.99
2787.00,93.99
2786.00,93.99
2785.00,93.99
2784.00,94.00
2783.00,94.00
2782.00,94.00
2781.00,94.00
2780.00,93.99
2779.00,93.98
2778.00,93.98
2777.00,93.99
2776.00,93.99
2775.00,93.99
2774.00,93.99
2773.00,93.99
2772.00,93.98
2771.00,93.98
2770.00,93.99
2769.00,93.99
2768.00,93.99
2767.00,93.99
2766.00,93.99
2765.00,93.99
2764.00,93.98
2763.00,93.98
2762.00,93.98
2761.00,93.99
2760.00,93.98
2759.00,93.98
2758.00,93.98
2757.00,93.98
2756.00,93.99
2755.00,93.99
2754.00,93.99
2753.00,93.99
2752.00,93.99
2751.00,93.99
2750.00,94.00
2749.00,94.00
2748.00,94.00
2747.00,94.00
2746.00,94.00
2745.00,94.00
2744.00,94.00
2743.00,94.00
2742.00,94.00
2741.00,94.00
2740.00,94.00
2739.00,94.00
2738.00,94.01
2737.00,94.01
2736.00,94.01
2735.00,94.01
2734.00,94.01
2733.00,94.01
2732.00,94.01
2731.00,94.00
2730.00,94.01
2729.00,94.01
2728.00,94.01
2727.00,94.01
2726.00,94.01
2725.00,94.01
2724.00,94.01
2723.00,94.01
2722.00,94.01
2721.00,94.01
2720.00,94.01
2719.00,94.01
2718.00,94.01
2717.00,94.01
2716.00,94.02
2715.00,94.02
2714.00,94.02
2713.00,94.03
2712.00,94.02
2711.00,94.01
2710.00,94.01
2709.00,94.01
2708.00,94.01
2707.00,94.01
2706.00,94.02
2705.00,94.02
2704.00,94.02
2703.00,94.02
2702.00,94.01
2701.00,94.01
2700.00,94.01
2699.00,94.01
2698.00,94.01
2697.00,94.02
2696.00,94.02
2695.00,94.02
2694.00,94.02
2693.00,94.03
2692.00,94.03
2691.00,94.02
2690.00,94.03
2689.00,94.03
2688.00,94.03
2687.00,94.03
2686.00,94.03
2685.00,94.03
2684.00,94.03
2683.00,94.02
2682.00,94.03
2681.00,94.03
2680.00,94.03
2679.00,94.02
2678.00,94.02
2677.00,94.01
2676.00,94.01
2675.00,94.01
2674.00,94.02
2673.00,94.02
2672.00,94.02
2671.00,94.02
2670.00,94.03
2669.00,94.03
2668.00,94.03
2667.00,94.03
2666.00,94.03
2665.00,94.03
2664.00,94.04
2663.00,94.03
2662.00,94.03
2661.00,94.03
2660.00,94.03
2659.00,94.03
2658.00,94.03
2657.00,94.03
2656.00,94.03
2655.00,94.02
2654.00,94.02
2653.00,94.02
2652.00,94.03
2651.00,94.03
2650.00,94.03
2649.00,94.04
2648.00,94.03
2647.00,94.03
2646.00,94.03
2645.00,94.03
2644.00,94.04
2643.00,94.04
2642.00,94.04
2641.00,94.04
2640.00,94.04
2639.00,94.03
2638.00,94.03
2637.00,94.03
2636.00,94.03
2635.00,94.03
2634.00,94.04
2633.00,94.04
2632.00,94.04
2631.00,94.05
2630.00,94.05
2629.00,94.05
2628.00,94.04
2627.00,94.04
2626.00,94.04
2625.00,94.04
2624.00,94.04
2623.00,94.03
2622.00,94.03
2621.00,94.04
2620.00,94.04
2619.00,94.05
2618.00,94.05
2617.00,94.05
2616.00,94.05
2615.00,94.05
2614.00,94.06
2613.00,94.06
2612.00,94.05
2611.00,94.05
2610.00,94.05
2609.00,94.05
2608.00,94.05
2607.00,94.05
2606.00,94.05
2605.00,94.05
2604.00,94.05
2603.00,94.05
2602.00,94.06
2601.00,94.06
2600.00,94.06
2599.00,94.06
2598.00,94.06
2597.00,94.06
2596.00,94.06
2595.00,94.06
2594.00,94.06
2593.00,94.06
2592.00,94.06
2591.00,94.06
2590.00,94.06
2589.00,94.06
2588.00,94.06
2587.00,94.05
2586.00,94.06
2585.00,94.06
2584.00,94.06
2583.00,94.06
2582.00,94.07
2581.00,94.07
2580.00,94.06
2579.00,94.06
2578.00,94.06
2577.00,94.06
2576.00,94.06
2575.00,94.06
2574.00,94.07
2573.00,94.08
2572.00,94.08
2571.00,94.07
2570.00,94.07
2569.00,94.07
2568.00,94.06
2567.00,94.06
2566.00,94.07
2565.00,94.07
2564.00,94.07
2563.00,94.06
2562.00,94.06
2561.00,94.06
2560.00,94.07
2559.00,94.08
2558.00,94.08
2557.00,94.08
2556.00,94.08
2555.00,94.08
2554.00,94.08
2553.00,94.09
2552.00,94.09
2551.00,94.09
2550.00,94.09
2549.00,94.09
2548.00,94.09
2547.00,94.09
2546.00,94.09
2545.00,94.08
2544.00,94.08
2543.00,94.07
2542.00,94.07
2541.00,94.07
2540.00,94.07
2539.00,94.08
2538.00,94.08
2537.00,94.09
2536.00,94.09
2535.00,94.09
2534.00,94.09
2533.00,94.09
2532.00,94.09
2531.00,94.08
2530.00,94.08
2529.00,94.08
2528.00,94.07
2527.00,94.07
2526.00,94.08
2525.00,94.09
2524.00,94.09
2523.00,94.09
2522.00,94.09
2521.00,94.10
2520.00,94.09
2519.00,94.09
2518.00,94.09
2517.00,94.09
2516.00,94.09
2515.00,94.09
2514.00,94.09
2513.00,94.09
2512.00,94.09
2511.00,94.09
2510.00,94.09
2509.00,94.10
2508.00,94.11
2507.00,94.10
2506.00,94.10
2505.00,94.10
2504.00,94.10
2503.00,94.09
2502.00,94.09
2501.00,94.09
2500.00,94.09
2499.00,94.09
2498.00,94.09
2497.00,94.10
2496.00,94.11
2495.00,94.11
2494.00,94.11
2493.00,94.12
2492.00,94.11
2491.00,94.11
2490.00,94.11
2489.00,94.11
2488.00,94.11
2487.00,94.10
2486.00,94.10
2485.00,94.10
2484.00,94.10
2483.00,94.09
2482.00,94.09
2481.00,94.10
2480.00,94.10
2479.00,94.10
2478.00,94.10
2477.00,94.10
2476.00,94.10
2475.00,94.10
2474.00,94.10
2473.00,94.11
2472.00,94.10
2471.00,94.10
2470.00,94.10
2469.00,94.11
2468.00,94.11
2467.00,94.10
2466.00,94.10
2465.00,94.10
2464.00,94.10
2463.00,94.10
2462.00,94.10
2461.00,94.10
2460.00,94.10
2459.00,94.10
2458.00,94.10
2457.00,94.10
2456.00,94.10
2455.00,94.09
2454.00,94.09
2453.00,94.09
2452.00,94.09
2451.00,94.08
2450.00,94.08
2449.00,94.09
2448.00,94.08
2447.00,94.08
2446.00,94.09
2445.00,94.09
2444.00,94.08
2443.00,94.08
2442.00,94.08
2441.00,94.09
2440.00,94.09
2439.00,94.08
2438.00,94.07
2437.00,94.07
2436.00,94.06
2435.00,94.05
2434.00,94.05
2433.00,94.04
2432.00,94.03
2431.00,94.02
2430.00,94.03
2429.00,94.04
2428.00,94.04
2427.00,94.03
2426.00,94.02
2425.00,94.01
2424.00,94.00
2423.00,93.98
2422.00,93.97
2421.00,93.96
2420.00,93.95
2419.00,93.94
2418.00,93.93
2417.00,93.92
2416.00,93.91
2415.00,93.89
2414.00,93.88
2413.00,93.86
2412.00,93.84
2411.00,93.81
2410.00,93.80
2409.00,93.78
2408.00,93.76
2407.00,93.72
2406.00,93.69
2405.00,93.67
2404.00,93.63
2403.00,93.58
2402.00,93.54
2401.00,93.49
2400.00,93.44
2399.00,93.37
2398.00,93.31
2397.00,93.25
2396.00,93.16
2395.00,93.03
2394.00,92.81
2393.00,92.13
2392.00,91.46
2391.00,89.17
2390.00,88.07
2389.00,83.23
2388.00,84.77
2387.00,66.25
2386.00,46.42
2385.00,41.00
2384.00,30.29
2383.00,23.32
2382.00,15.85
2381.00,10.62
2380.00,6.39
2379.00,3.61
2378.00,1.86
2377.00,0.88
2376.00,0.38
2375.00,0.16
2374.00,0.10
2373.00,0.11
2372.00,0.11
2371.00,0.11
2370.00,0.11
2369.00,0.12
2368.00,0.13
2367.00,0.13
2366.00,0.13
2365.00,0.13
2364.00,0.14
2363.00,0.14
2362.00,0.14
2361.00,0.15
2360.00,0.16
2359.00,0.15
2358.00,0.14
2357.00,0.13
2356.00,0.12
2355.00,0.11
2354.00,0.11
2353.00,0.11
2352.00,0.11
2351.00,0.10
2350.00,0.10
2349.00,0.11
2348.00,0.11
2347.00,0.11
2346.00,0.11
2345.00,0.11
2344.00,0.12
2343.00,0.12
2342.00,0.12
2341.00,0.13
2340.00,0.13
2339.00,0.13
2338.00,0.13
2337.00,0.13
2336.00,0.13
2335.00,0.13
2334.00,0.12
2333.00,0.12
2332.00,0.12
2331.00,0.11
2330.00,0.11
2329.00,0.11
2328.00,0.11
2327.00,0.11
2326.00,0.11
2325.00,0.11
2324.00,0.11
2323.00,0.11
2322.00,0.11
2321.00,0.13
2320.00,0.14
2319.00,0.15
2318.00,0.19
2317.00,0.28
2316.00,0.40
2315.00,0.52
2314.00,0.66
2313.00,0.81
2312.00,0.91
2311.00,1.01
2310.00,1.24
2309.00,1.70
2308.00,2.46
2307.00,3.55
2306.00,5.04
2305.00,5.95
2304.00,7.24
2303.00,6.55
2302.00,9.21
2301.00,6.79
2300.00,21.88
2299.00,34.32
2298.00,30.65
2297.00,32.18
2296.00,31.00
2295.00,32.41
2294.00,33.97
2293.00,36.93
2292.00,39.67
2291.00,41.82
2290.00,43.33
2289.00,45.13
2288.00,47.88
2287.00,51.79
2286.00,56.30
2285.00,60.36
2284.00,62.73
2283.00,62.76
2282.00,61.22
2281.00,59.53
2280.00,58.79
2279.00,58.94
2278.00,59.61
2277.00,60.43
2276.00,61.37
2275.00,62.39
2274.00,63.36
2273.00,64.28
2272.00,65.14
2271.00,65.87
2270.00,66.33
2269.00,66.50
2268.00,66.53
2267.00,66.54
2266.00,66.66
2265.00,67.03
2264.00,67.65
2263.00,68.58
2262.00,69.59
2261.00,70.55
2260.00,71.33
2259.00,71.83
2258.00,72.20
2257.00,72.54
2256.00,73.09
2255.00,73.83
2254.00,74.73
2253.00,75.74
2252.00,76.84
2251.00,78.07
2250.00,79.33
2249.00,80.57
2248.00,81.65
2247.00,82.56
2246.00,83.29
2245.00,83.98
2244.00,84.73
2243.00,85.54
2242.00,86.35
2241.00,87.12
2240.00,87.85
2239.00,88.55
2238.00,89.21
2237.00,89.81
2236.00,90.38
2235.00,90.90
2234.00,91.34
2233.00,91.72
2232.00,92.06
2231.00,92.36
2230.00,92.63
2229.00,92.86
2228.00,93.07
2227.00,93.25
2226.00,93.40
2225.00,93.53
2224.00,93.64
2223.00,93.74
2222.00,93.82
2221.00,93.88
2220.00,93.94
2219.00,93.99
2218.00,94.03
2217.00,94.06
2216.00,94.09
2215.00,94.12
2214.00,94.14
2213.00,94.15
2212.00,94.16
2211.00,94.18
2210.00,94.19
2209.00,94.20
2208.00,94.22
2207.00,94.23
2206.00,94.24
2205.00,94.23
2204.00,94.23
2203.00,94.24
2202.00,94.24
2201.00,94.24
2200.00,94.24
2199.00,94.25
2198.00,94.25
2197.00,94.25
2196.00,94.26
2195.00,94.27
2194.00,94.28
2193.00,94.27
2192.00,94.26
2191.00,94.27
2190.00,94.27
2189.00,94.27
2188.00,94.28
2187.00,94.28
2186.00,94.28
2185.00,94.27
2184.00,94.26
2183.00,94.27
2182.00,94.27
2181.00,94.27
2180.00,94.27
2179.00,94.28
2178.00,94.28
2177.00,94.28
2176.00,94.29
2175.00,94.29
2174.00,94.29
2173.00,94.28
2172.00,94.28
2171.00,94.28
2170.00,94.28
2169.00,94.28
2168.00,94.28
2167.00,94.28
2166.00,94.28
2165.00,94.28
2164.00,94.28
2163.00,94.28
2162.00,94.29
2161.00,94.29
2160.00,94.29
2159.00,94.29
2158.00,94.29
2157.00,94.28
2156.00,94.28
2155.00,94.28
2154.00,94.28
2153.00,94.28
2152.00,94.28
2151.00,94.28
2150.00,94.28
2149.00,94.29
2148.00,94.29
2147.00,94.29
2146.00,94.29
2145.00,94.28
2144.00,94.28
2143.00,94.28
2142.00,94.29
2141.00,94.29
2140.00,94.29
2139.00,94.30
2138.00,94.30
2137.00,94.29
2136.00,94.29
2135.00,94.29
2134.00,94.28
2133.00,94.26
2132.00,94.22
2131.00,94.16
2130.00,94.13
2129.00,94.15
2128.00,94.20
2127.00,94.25
2126.00,94.28
2125.00,94.28
2124.00,94.28
2123.00,94.28
2122.00,94.28
2121.00,94.27
2120.00,94.26
2119.00,94.25
2118.00,94.24
2117.00,94.24
2116.00,94.23
2115.00,94.23
2114.00,94.24
2113.00,94.24
2112.00,94.25
2111.00,94.25
2110.00,94.24
2109.00,94.24
2108.00,94.23
2107.00,94.24
2106.00,94.25
2105.00,94.25
2104.00,94.25
2103.00,94.24
2102.00,94.25
2101.00,94.25
2100.00,94.25
2099.00,94.25
2098.00,94.25
2097.00,94.21
2096.00,94.12
2095.00,94.02
2094.00,94.00
2093.00,94.05
2092.00,94.14
2091.00,94.21
2090.00,94.24
2089.00,94.24
2088.00,94.22
2087.00,94.19
2086.00,94.19
2085.00,94.18
2084.00,94.17
2083.00,94.17
2082.00,94.12
2081.00,93.79
2080.00,93.02
2079.00,92.07
2078.00,91.57
2077.00,91.94
2076.00,92.90
2075.00,93.76
2074.00,94.13
2073.00,94.13
2072.00,94.05
2071.00,94.00
2070.00,93.94
2069.00,93.87
2068.00,93.82
2067.00,93.78
2066.00,93.72
2065.00,93.68
2064.00,93.65
2063.00,93.64
2062.00,93.62
2061.00,93.61
2060.00,93.61
2059.00,93.64
2058.00,93.65
2057.00,93.67
2056.00,93.69
2055.00,93.72
2054.00,93.74
2053.00,93.76
2052.00,93.80
2051.00,93.85
2050.00,93.90
2049.00,93.93
2048.00,93.97
2047.00,94.02
2046.00,94.05
2045.00,94.08
2044.00,94.12
2043.00,94.16
2042.00,94.18
2041.00,94.19
2040.00,94.20
2039.00,94.22
2038.00,94.23
2037.00,94.24
2036.00,94.26
2035.00,94.29
2034.00,94.30
2033.00,94.29
2032.00,94.30
2031.00,94.31
2030.00,94.32
2029.00,94.33
2028.00,94.33
2027.00,94.34
2026.00,94.34
2025.00,94.33
2024.00,94.33
2023.00,94.33
2022.00,94.33
2021.00,94.32
2020.00,94.32
2019.00,94.32
2018.00,94.32
2017.00,94.32
2016.00,94.33
2015.00,94.33
2014.00,94.34
2013.00,94.33
2012.00,94.34
2011.00,94.34
2010.00,94.35
2009.00,94.34
2008.00,94.35
2007.00,94.35
2006.00,94.35
2005.00,94.35
2004.00,94.35
2003.00,94.36
2002.00,94.36
2001.00,94.35
2000.00,94.35
1999.00,94.35
1998.00,94.36
1997.00,94.36
1996.00,94.36
1995.00,94.36
1994.00,94.35
1993.00,94.34
1992.00,94.34
1991.00,94.34
1990.00,94.35
1989.00,94.35
1988.00,94.35
1987.00,94.35
1986.00,94.35
1985.00,94.35
1984.00,94.35
1983.00,94.36
1982.00,94.36
1981.00,94.36
1980.00,94.36
1979.00,94.36
1978.00,94.35
1977.00,94.35
1976.00,94.35
1975.00,94.36
1974.00,94.36
1973.00,94.36
1972.00,94.36
1971.00,94.36
1970.00,94.35
1969.00,94.34
1968.00,94.34
1967.00,94.34
1966.00,94.35
1965.00,94.36
1964.00,94.36
1963.00,94.37
1962.00,94.36
1961.00,94.35
1960.00,94.35
1959.00,94.36
1958.00,94.35
1957.00,94.35
1956.00,94.35
1955.00,94.35
1954.00,94.35
1953.00,94.35
1952.00,94.36
1951.00,94.36
1950.00,94.36
1949.00,94.35
1948.00,94.35
1947.00,94.36
1946.00,94.35
1945.00,94.34
1944.00,94.33
1943.00,94.33
1942.00,94.33
1941.00,94.34
1940.00,94.36
1939.00,94.37
1938.00,94.36
1937.00,94.32
1936.00,94.26
1935.00,94.18
1934.00,94.13
1933.00,94.13
1932.00,94.20
1931.00,94.29
1930.00,94.35
1929.00,94.36
1928.00,94.35
1927.00,94.35
1926.00,94.34
1925.00,94.30
1924.00,94.28
1923.00,94.27
1922.00,94.27
1921.00,94.26
1920.00,94.25
1919.00,94.25
1918.00,94.25
1917.00,94.25
1916.00,94.26
1915.00,94.27
1914.00,94.28
1913.00,94.26
1912.00,94.25
1911.00,94.25
1910.00,94.25
1909.00,94.25
1908.00,94.25
1907.00,94.28
1906.00,94.29
1905.00,94.29
1904.00,94.29
1903.00,94.30
1902.00,94.31
1901.00,94.31
1900.00,94.31
1899.00,94.32
1898.00,94.33
1897.00,94.32
1896.00,94.32
1895.00,94.33
1894.00,94.35
1893.00,94.35
1892.00,94.34
1891.00,94.34
1890.00,94.35
1889.00,94.34
1888.00,94.35
1887.00,94.37
1886.00,94.38
1885.00,94.37
1884.00,94.37
1883.00,94.38
1882.00,94.39
1881.00,94.38
1880.00,94.37
1879.00,94.38
1878.00,94.39
1877.00,94.38
1876.00,94.37
1875.00,94.38
1874.00,94.39
1873.00,94.39
1872.00,94.38
1871.00,94.38
1870.00,94.38
1869.00,94.35
1868.00,94.34
1867.00,94.36
1866.00,94.39
1865.00,94.39
1864.00,94.38
1863.00,94.39
1862.00,94.39
1861.00,94.38
1860.00,94.37
1859.00,94.38
1858.00,94.39
1857.00,94.39
1856.00,94.38
1855.00,94.38
1854.00,94.38
1853.00,94.38
1852.00,94.38
1851.00,94.39
1850.00,94.39
1849.00,94.38
1848.00,94.37
1847.00,94.36
1846.00,94.36
1845.00,94.36
1844.00,94.37
1843.00,94.40
1842.00,94.42
1841.00,94.42
1840.00,94.41
1839.00,94.40
1838.00,94.40
1837.00,94.39
1836.00,94.39
1835.00,94.40
1834.00,94.40
1833.00,94.39
1832.00,94.37
1831.00,94.36
1830.00,94.36
1829.00,94.37
1828.00,94.38
1827.00,94.39
1826.00,94.39
1825.00,94.39
1824.00,94.38
1823.00,94.38
1822.00,94.39
1821.00,94.39
1820.00,94.37
1819.00,94.37
1818.00,94.39
1817.00,94.39
1816.00,94.38
1815.00,94.38
1814.00,94.39
1813.00,94.39
1812.00,94.37
1811.00,94.37
1810.00,94.39
1809.00,94.39
1808.00,94.38
1807.00,94.39
1806.00,94.41
1805.00,94.40
1804.00,94.39
1803.00,94.39
1802.00,94.41
1801.00,94.42
1800.00,94.41
1799.00,94.41
1798.00,94.43
1797.00,94.42
1796.00,94.40
1795.00,94.41
1794.00,94.43
1793.00,94.44
1792.00,94.42
1791.00,94.42
1790.00,94.44
1789.00,94.44
1788.00,94.42
1787.00,94.41
1786.00,94.42
1785.00,94.41
1784.00,94.40
1783.00,94.39
1782.00,94.39
1781.00,94.40
1780.00,94.40
1779.00,94.41
1778.00,94.42
1777.00,94.44
1776.00,94.46
1775.00,94.48
1774.00,94.52
1773.00,94.55
1772.00,94.53
1771.00,94.47
1770.00,94.45
1769.00,94.46
1768.00,94.45
1767.00,94.44
1766.00,94.44
1765.00,94.45
1764.00,94.44
1763.00,94.42
1762.00,94.42
1761.00,94.45
1760.00,94.47
1759.00,94.48
1758.00,94.48
1757.00,94.49
1756.00,94.50
1755.00,94.49
1754.00,94.50
1753.00,94.56
1752.00,94.61
1751.00,94.58
1750.00,94.51
1749.00,94.46
1748.00,94.44
1747.00,94.43
1746.00,94.41
1745.00,94.42
1744.00,94.42
1743.00,94.41
1742.00,94.42
1741.00,94.44
1740.00,94.46
1739.00,94.45
1738.00,94.45
1737.00,94.47
1736.00,94.54
1735.00,94.65
1734.00,94.66
1733.00,94.59
1732.00,94.52
1731.00,94.47
1730.00,94.43
1729.00,94.40
1728.00,94.40
1727.00,94.40
1726.00,94.40
1725.00,94.39
1724.00,94.39
1723.00,94.41
1722.00,94.45
1721.00,94.48
1720.00,94.51
1719.00,94.60
1718.00,94.72
1717.00,94.72
1716.00,94.63
1715.00,94.57
1714.00,94.55
1713.00,94.49
1712.00,94.43
1711.00,94.42
1710.00,94.43
1709.00,94.42
1708.00,94.40
1707.00,94.41
1706.00,94.45
1705.00,94.47
1704.00,94.45
1703.00,94.45
1702.00,94.50
1701.00,94.55
1700.00,94.52
1699.00,94.54
1698.00,94.63
1697.00,94.66
1696.00,94.59
1695.00,94.51
1694.00,94.48
1693.00,94.48
1692.00,94.45
1691.00,94.43
1690.00,94.44
1689.00,94.46
1688.00,94.46
1687.00,94.44
1686.00,94.45
1685.00,94.49
1684.00,94.52
1683.00,94.50
1682.00,94.47
1681.00,94.46
1680.00,94.46
1679.00,94.47
1678.00,94.47
1677.00,94.50
1676.00,94.55
1675.00,94.55
1674.00,94.51
1673.00,94.49
1672.00,94.49
1671.00,94.47
1670.00,94.41
1669.00,94.37
1668.00,94.39
1667.00,94.41
1666.00,94.41
1665.00,94.41
1664.00,94.43
1663.00,94.45
1662.00,94.43
1661.00,94.43
1660.00,94.45
1659.00,94.46
1658.00,94.43
1657.00,94.40
1656.00,94.33
1655.00,94.28
1654.00,94.28
1653.00,94.25
1652.00,94.23
1651.00,94.32
1650.00,94.43
1649.00,94.45
1648.00,94.43
1647.00,94.42
1646.00,94.42
1645.00,94.42
1644.00,94.44
1643.00,94.47
1642.00,94.47
1641.00,94.47
1640.00,94.46
1639.00,94.43
1638.00,94.39
1637.00,94.37
1636.00,94.37
1635.00,94.37
1634.00,94.38
1633.00,94.41
1632.00,94.42
1631.00,94.43
1630.00,94.43
1629.00,94.41
1628.00,94.41
1627.00,94.40
1626.00,94.39
1625.00,94.37
1624.00,94.37
1623.00,94.38
1622.00,94.37
1621.00,94.37
1620.00,94.35
1619.00,94.28
1618.00,94.18
1617.00,94.14
1616.00,94.19
1615.00,94.29
1614.00,94.34
1613.00,94.34
1612.00,94.35
1611.00,94.36
1610.00,94.34
1609.00,94.32
1608.00,94.33
1607.00,94.35
1606.00,94.33
1605.00,94.32
1604.00,94.34
1603.00,94.34
1602.00,94.32
1601.00,94.31
1600.00,94.33
1599.00,94.34
1598.00,94.32
1597.00,94.30
1596.00,94.30
1595.00,94.31
1594.00,94.31
1593.00,94.30
1592.00,94.31
1591.00,94.32
1590.00,94.30
1589.00,94.28
1588.00,94.30
1587.00,94.32
1586.00,94.31
1585.00,94.30
1584.00,94.32
1583.00,94.32
1582.00,94.30
1581.00,94.28
1580.00,94.28
1579.00,94.22
1578.00,94.10
1577.00,94.02
1576.00,94.06
1575.00,94.15
1574.00,94.24
1573.00,94.31
1572.00,94.33
1571.00,94.32
1570.00,94.29
1569.00,94.29
1568.00,94.36
1567.00,94.41
1566.00,94.40
1565.00,94.41
1564.00,94.43
1563.00,94.39
1562.00,94.30
1561.00,94.30
1560.00,94.43
1559.00,94.45
1558.00,94.37
1557.00,94.35
1556.00,94.43
1555.00,94.46
1554.00,94.45
1553.00,94.46
1552.00,94.47
1551.00,94.46
1550.00,94.44
1549.00,94.45
1548.00,94.49
1547.00,94.52
1546.00,94.52
1545.00,94.49
1544.00,94.47
1543.00,94.46
1542.00,94.48
1541.00,94.47
1540.00,94.40
1539.00,94.32
1538.00,94.30
1537.00,94.35
1536.00,94.41
1535.00,94.44
1534.00,94.44
1533.00,94.42
1532.00,94.41
1531.00,94.42
1530.00,94.44
1529.00,94.44
1528.00,94.45
1527.00,94.49
1526.00,94.54
1525.00,94.55
1524.00,94.53
1523.00,94.52
1522.00,94.53
1521.00,94.52
1520.00,94.51
1519.00,94.50
1518.00,94.50
1517.00,94.48
1516.00,94.47
1515.00,94.47
1514.00,94.50
1513.00,94.51
1512.00,94.47
1511.00,94.43
1510.00,94.43
1509.00,94.46
1508.00,94.49
1507.00,94.51
1506.00,94.49
1505.00,94.45
1504.00,94.43
1503.00,94.42
1502.00,94.41
1501.00,94.40
1500.00,94.40
1499.00,94.43
1498.00,94.51
1497.00,94.58
1496.00,94.55
1495.00,94.50
1494.00,94.48
1493.00,94.48
1492.00,94.46
1491.00,94.45
1490.00,94.43
1489.00,94.38
1488.00,94.32
1487.00,94.32
1486.00,94.33
1485.00,94.33
1484.00,94.31
1483.00,94.31
1482.00,94.33
1481.00,94.33
1480.00,94.34
1479.00,94.36
1478.00,94.38
1477.00,94.41
1476.00,94.44
1475.00,94.52
1474.00,94.59
1473.00,94.60
1472.00,94.52
1471.00,94.45
1470.00,94.41
1469.00,94.38
1468.00,94.35
1467.00,94.34
1466.00,94.35
1465.00,94.36
1464.00,94.37
1463.00,94.37
1462.00,94.39
1461.00,94.40
1460.00,94.39
1459.00,94.39
1458.00,94.43
1457.00,94.48
1456.00,94.47
1455.00,94.42
1454.00,94.40
1453.00,94.39
1452.00,94.37
1451.00,94.36
1450.00,94.36
1449.00,94.37
1448.00,94.35
1447.00,94.31
1446.00,94.30
1445.00,94.32
1444.00,94.33
1443.00,94.31
1442.00,94.30
1441.00,94.32
1440.00,94.32
1439.00,94.29
1438.00,94.30
1437.00,94.34
1436.00,94.34
1435.00,94.31
1434.00,94.30
1433.00,94.31
1432.00,94.31
1431.00,94.28
1430.00,94.27
1429.00,94.28
1428.00,94.30
1427.00,94.28
1426.00,94.27
1425.00,94.29
1424.00,94.31
1423.00,94.29
1422.00,94.26
1421.00,94.27
1420.00,94.29
1419.00,94.28
1418.00,94.28
1417.00,94.32
1416.00,94.33
1415.00,94.29
1414.00,94.25
1413.00,94.26
1412.00,94.27
1411.00,94.24
1410.00,94.23
1409.00,94.26
1408.00,94.27
1407.00,94.26
1406.00,94.25
1405.00,94.27
1404.00,94.30
1403.00,94.30
1402.00,94.30
1401.00,94.32
1400.00,94.35
1399.00,94.34
1398.00,94.32
1397.00,94.32
1396.00,94.32
1395.00,94.31
1394.00,94.29
1393.00,94.30
1392.00,94.31
1391.00,94.29
1390.00,94.26
1389.00,94.24
1388.00,94.24
1387.00,94.25
1386.00,94.25
1385.00,94.26
1384.00,94.27
1383.00,94.26
1382.00,94.25
1381.00,94.26
1380.00,94.27
1379.00,94.28
1378.00,94.28
1377.00,94.27
1376.00,94.27
1375.00,94.26
1374.00,94.24
1373.00,94.24
1372.00,94.26
1371.00,94.27
1370.00,94.26
1369.00,94.27
1368.00,94.28
1367.00,94.28
1366.00,94.27
1365.00,94.24
1364.00,94.23
1363.00,94.22
1362.00,94.22
1361.00,94.23
1360.00,94.24
1359.00,94.25
1358.00,94.25
1357.00,94.25
1356.00,94.25
1355.00,94.25
1354.00,94.26
1353.00,94.27
1352.00,94.27
1351.00,94.28
1350.00,94.27
1349.00,94.27
1348.00,94.27
1347.00,94.28
1346.00,94.28
1345.00,94.28
1344.00,94.28
1343.00,94.27
1342.00,94.26
1341.00,94.24
1340.00,94.24
1339.00,94.25
1338.00,94.25
1337.00,94.26
1336.00,94.28
1335.00,94.28
1334.00,94.28
1333.00,94.29
1332.00,94.29
1331.00,94.29
1330.00,94.28
1329.00,94.28
1328.00,94.29
1327.00,94.29
1326.00,94.29
1325.00,94.28
1324.00,94.28
1323.00,94.28
1322.00,94.27
1321.00,94.28
1320.00,94.28
1319.00,94.29
1318.00,94.29
1317.00,94.29
1316.00,94.30
1315.00,94.30
1314.00,94.29
1313.00,94.28
1312.00,94.29
1311.00,94.31
1310.00,94.31
1309.00,94.32
1308.00,94.32
1307.00,94.32
1306.00,94.31
1305.00,94.32
1304.00,94.33
1303.00,94.34
1302.00,94.33
1301.00,94.33
1300.00,94.33
1299.00,94.32
1298.00,94.31
1297.00,94.31
1296.00,94.31
1295.00,94.31
1294.00,94.30
1293.00,94.31
1292.00,94.31
1291.00,94.32
1290.00,94.32
1289.00,94.33
1288.00,94.35
1287.00,94.35
1286.00,94.35
1285.00,94.35
1284.00,94.35
1283.00,94.34
1282.00,94.33
1281.00,94.33
1280.00,94.34
1279.00,94.35
1278.00,94.35
1277.00,94.36
1276.00,94.37
1275.00,94.37
1274.00,94.36
1273.00,94.36
1272.00,94.35
1271.00,94.36
1270.00,94.36
1269.00,94.38
1268.00,94.39
1267.00,94.40
1266.00,94.39
1265.00,94.39
1264.00,94.39
1263.00,94.39
1262.00,94.39
1261.00,94.38
1260.00,94.38
1259.00,94.38
1258.00,94.37
1257.00,94.38
1256.00,94.39
1255.00,94.38
1254.00,94.37
1253.00,94.36
1252.00,94.35
1251.00,94.35
1250.00,94.35
1249.00,94.36
1248.00,94.37
1247.00,94.37
1246.00,94.36
1245.00,94.36
1244.00,94.36
1243.00,94.36
1242.00,94.36
1241.00,94.36
1240.00,94.36
1239.00,94.36
1238.00,94.36
1237.00,94.37
1236.00,94.38
1235.00,94.38
1234.00,94.37
1233.00,94.38
1232.00,94.39
1231.00,94.39
1230.00,94.39
1229.00,94.38
1228.00,94.38
1227.00,94.38
1226.00,94.39
1225.00,94.40
1224.00,94.40
1223.00,94.40
1222.00,94.39
1221.00,94.39
1220.00,94.39
1219.00,94.39
1218.00,94.39
1217.00,94.39
1216.00,94.40
1215.00,94.41
1214.00,94.41
1213.00,94.41
1212.00,94.42
1211.00,94.42
1210.00,94.42
1209.00,94.41
1208.00,94.40
1207.00,94.40
1206.00,94.41
1205.00,94.43
1204.00,94.46
1203.00,94.47
1202.00,94.48
1201.00,94.48
1200.00,94.48
1199.00,94.47
1198.00,94.47
1197.00,94.48
1196.00,94.50
1195.00,94.51
1194.00,94.52
1193.00,94.52
1192.00,94.52
1191.00,94.51
1190.00,94.50
1189.00,94.50
1188.00,94.50
1187.00,94.49
1186.00,94.49
1185.00,94.50
1184.00,94.52
1183.00,94.54
1182.00,94.55
1181.00,94.55
1180.00,94.54
1179.00,94.51
1178.00,94.49
1177.00,94.49
1176.00,94.51
1175.00,94.52
1174.00,94.53
1173.00,94.55
1172.00,94.57
1171.00,94.58
1170.00,94.58
1169.00,94.58
1168.00,94.59
1167.00,94.59
1166.00,94.59
1165.00,94.59
1164.00,94.60
1163.00,94.60
1162.00,94.60
1161.00,94.60
1160.00,94.61
1159.00,94.60
1158.00,94.59
1157.00,94.58
1156.00,94.58
1155.00,94.58
1154.00,94.58
1153.00,94.60
1152.00,94.62
1151.00,94.63
1150.00,94.63
1149.00,94.62
1148.00,94.61
1147.00,94.60
1146.00,94.59
1145.00,94.60
1144.00,94.62
1143.00,94.63
1142.00,94.63
1141.00,94.63
1140.00,94.62
1139.00,94.60
1138.00,94.58
1137.00,94.57
1136.00,94.57
1135.00,94.56
1134.00,94.55
1133.00,94.55
1132.00,94.54
1131.00,94.54
1130.00,94.53
1129.00,94.53
1128.00,94.54
1127.00,94.54
1126.00,94.54
1125.00,94.56
1124.00,94.57
1123.00,94.58
1122.00,94.58
1121.00,94.58
1120.00,94.59
1119.00,94.59
1118.00,94.59
1117.00,94.60
1116.00,94.61
1115.00,94.61
1114.00,94.60
1113.00,94.59
1112.00,94.59
1111.00,94.59
1110.00,94.60
1109.00,94.61
1108.00,94.61
1107.00,94.60
1106.00,94.60
1105.00,94.61
1104.00,94.62
1103.00,94.62
1102.00,94.61
1101.00,94.61
1100.00,94.62
1099.00,94.63
1098.00,94.62
1097.00,94.60
1096.00,94.56
1095.00,94.53
1094.00,94.52
1093.00,94.53
1092.00,94.55
1091.00,94.55
1090.00,94.54
1089.00,94.53
1088.00,94.53
1087.00,94.52
1086.00,94.51
1085.00,94.53
1084.00,94.55
1083.00,94.54
1082.00,94.52
1081.00,94.50
1080.00,94.49
1079.00,94.49
1078.00,94.47
1077.00,94.45
1076.00,94.42
1075.00,94.39
1074.00,94.38
1073.00,94.40
1072.00,94.44
1071.00,94.48
1070.00,94.50
1069.00,94.54
1068.00,94.58
1067.00,94.61
1066.00,94.62
1065.00,94.63
1064.00,94.65
1063.00,94.66
1062.00,94.66
1061.00,94.66
1060.00,94.64
1059.00,94.61
1058.00,94.58
1057.00,94.58
1056.00,94.59
1055.00,94.57
1054.00,94.54
1053.00,94.53
1052.00,94.53
1051.00,94.54
1050.00,94.55
1049.00,94.56
1048.00,94.56
1047.00,94.53
1046.00,94.52
1045.00,94.54
1044.00,94.59
1043.00,94.65
1042.00,94.70
1041.00,94.72
1040.00,94.70
1039.00,94.68
1038.00,94.68
1037.00,94.72
1036.00,94.75
1035.00,94.74
1034.00,94.72
1033.00,94.74
1032.00,94.78
1031.00,94.79
1030.00,94.74
1029.00,94.67
1028.00,94.62
1027.00,94.61
1026.00,94.65
1025.00,94.71
1024.00,94.76
1023.00,94.73
1022.00,94.67
1021.00,94.62
1020.00,94.61
1019.00,94.61
1018.00,94.59
1017.00,94.56
1016.00,94.56
1015.00,94.57
1014.00,94.58
1013.00,94.59
1012.00,94.58
1011.00,94.58
1010.00,94.64
1009.00,94.76
1008.00,94.88
1007.00,94.91
1006.00,94.87
1005.00,94.80
1004.00,94.72
1003.00,94.63
1002.00,94.57
1001.00,94.57
1000.00,94.62
999.00,94.65
998.00,94.66
997.00,94.68
996.00,94.71
995.00,94.73
994.00,94.70
993.00,94.62
992.00,94.49
991.00,94.34
990.00,94.30
989.00,94.42
988.00,94.64
987.00,94.85
986.00,94.95
985.00,94.92
984.00,94.83
983.00,94.73
982.00,94.67
981.00,94.65
980.00,94.63
979.00,94.59
978.00,94.54
977.00,94.51
976.00,94.49
975.00,94.45
974.00,94.40
973.00,94.41
972.00,94.50
971.00,94.66
970.00,94.83
969.00,94.96
968.00,94.95
967.00,94.79
966.00,94.60
965.00,94.51
964.00,94.55
963.00,94.67
962.00,94.81
961.00,94.93
960.00,94.95
959.00,94.87
958.00,94.79
957.00,94.76
956.00,94.72
955.00,94.66
954.00,94.62
953.00,94.66
952.00,94.70
951.00,94.70
950.00,94.78
949.00,95.01
948.00,95.23
947.00,95.21
946.00,94.99
945.00,94.75
944.00,94.62
943.00,94.60
942.00,94.75
941.00,95.04
940.00,95.24
939.00,95.18
938.00,94.93
937.00,94.72
936.00,94.58
935.00,94.44
934.00,94.36
933.00,94.47
932.00,94.71
931.00,94.88
930.00,94.97
929.00,94.96
928.00,94.68
927.00,94.11
926.00,93.59
925.00,93.46
924.00,93.61
923.00,93.70
922.00,93.64
921.00,93.56
920.00,93.37
919.00,93.07
918.00,92.97
917.00,93.26
916.00,93.56
915.00,93.47
914.00,93.19
913.00,93.13
912.00,93.13
911.00,92.86
910.00,92.48
909.00,92.04
908.00,91.43
907.00,91.09
906.00,91.48
905.00,92.44
904.00,93.11
903.00,92.95
902.00,92.63
901.00,92.96
900.00,93.38
899.00,92.94
898.00,92.57
897.00,93.24
896.00,94.14
895.00,95.16
894.00,97.87
893.00,103.06
892.00,109.37
891.00,111.47
890.00,109.81
889.00,111.10
888.00,109.68
887.00,98.67
886.00,86.15
885.00,80.20
884.00,80.70
883.00,83.71
882.00,90.88
881.00,106.05
880.00,125.23
879.00,128.79
878.00,117.77
877.00,113.76
876.00,104.19
875.00,90.64
874.00,80.44
873.00,72.97
872.00,71.34
871.00,77.03
870.00,70.60
869.00,128.88
868.00,150.93
867.00,202.00
866.00,118.55
865.00,283.97
864.00,1083.96
863.00,280.28
862.00,93.36
861.00,184.31
860.00,180.86
859.00,145.23
858.00,68.97
857.00,154.37
856.00,122.70
855.00,106.11
854.00,175.84
853.00,133.65
852.00,146.15
851.00,250.02
850.00,203.93
849.00,214.22
848.00,210.16
847.00,338.90
846.00,173.78
845.00,180.70
844.00,116.21
843.00,171.20
842.00,399.12
841.00,158.20
840.00,94.04
839.00,99.90
838.00,158.65
837.00,215.06
836.00,166.20
835.00,182.24
834.00,77.78
833.00,78.38
832.00,106.47
831.00,54.88
830.00,119.26
829.00,467.41
828.00,322.14
827.00,467.47
826.00,213.55
825.00,102.38
824.00,145.56
823.00,276.64
822.00,109.38
821.00,243.98
820.00,167.50
819.00,123.51
818.00,113.71
817.00,190.47
816.00,119.97
815.00,83.34
814.00,108.53
813.00,100.73
812.00,115.05
811.00,143.59
810.00,327.92
809.00,568.53
808.00,218.67
807.00,217.78
806.00,217.93
805.00,159.11
804.00,124.35
803.00,93.73
802.00,34.10
801.00,45.83
800.00,115.50
799.00,120.64
798.00,136.61
797.00,275.85
796.00,302.07
795.00,414.52
794.00,403.19
793.00,664.45
792.00,228.12
791.00,160.60
790.00,268.44
789.00,552.17
788.00,230.44
787.00,277.96
786.00,98.95
785.00,153.99
784.00,387.74
783.00,275.13
782.00,191.84
781.00,405.01
780.00,298.14
779.00,214.26
778.00,40.15
777.00,172.82
776.00,975.98
775.00,435.41
774.00,20.39
773.00,81.20
772.00,128.32
771.00,182.60
770.00,42.35
769.00,513.57
768.00,1970.68
767.00,342.99
766.00,12.69
765.00,231.76
764.00,302.98
763.00,453.09
762.00,41.59
761.00,113.33
760.00,159.55
759.00,190.78
758.00,273.53
757.00,468.40
756.00,235.29
755.00,178.30
754.00,95.89
753.00,104.14
752.00,160.82
751.00,139.41
750.00,46.57
749.00,178.42
748.00,398.37
747.00,216.51
746.00,97.77
745.00,196.31
744.00,412.69
743.00,247.11
742.00,99.69
741.00,284.69
740.00,521.69
739.00,259.53
738.00,61.45
737.00,103.53
736.00,171.28
735.00,152.76
734.00,147.77
733.00,283.66
732.00,152.89
731.00,323.09
730.00,127.45
729.00,290.08
728.00,356.28
727.00,191.65
726.00,122.26
725.00,196.91
724.00,154.93
723.00,146.08
722.00,124.12
721.00,343.81
720.00,456.37
719.00,296.17
718.00,145.37
717.00,254.77
716.00,355.99
715.00,351.21
714.00,175.20
713.00,470.39
712.00,582.91
711.00,631.02
710.00,745.21
709.00,296.03
708.00,127.78
707.00,264.39
706.00,1167.82
705.00,1043.77
704.00,241.45
703.00,65.53
702.00,26.91
701.00,57.29
700.00,210.44
699.00,241.45
698.00,145.69
697.00,149.02
696.00,140.94
695.00,92.84
694.00,40.15
693.00,125.39
692.00,311.98
691.00,133.81
690.00,33.77
689.00,97.92
688.00,150.89
687.00,186.59
686.00,70.89
685.00,262.98
684.00,244.15
683.00,192.46
682.00,0.33
681.00,126.31
680.00,1217.14
679.00,1153.39
678.00,562.79
677.00,168.94
676.00,104.60
675.00,95.32
674.00,106.51
673.00,86.21
672.00,136.64
671.00,208.04
670.00,157.90
669.00,299.00
668.00,241.27
667.00,183.26
666.00,63.57
665.00,208.10
664.00,191.99
663.00,268.77
662.00,335.55
661.00,155.41
660.00,112.33
659.00,154.99
658.00,369.77
657.00,162.60
656.00,126.47
655.00,196.07
654.00,96.72
653.00,232.64
652.00,379.53
651.00,233.07
650.00,118.02
649.00,305.80
648.00,241.34
647.00,477.94
646.00,224.05
645.00,251.80
644.00,512.11
643.00,146.53
642.00,72.19
641.00,173.91
640.00,221.70
639.00,179.13
638.00,122.76
637.00,269.33
636.00,238.13
635.00,336.60
634.00,510.96
633.00,642.95
632.00,269.69
631.00,211.79
630.00,82.59
629.00,248.45
628.00,787.22
627.00,242.63
626.00,70.05
625.00,190.04
624.00,240.63
623.00,449.06
622.00,153.46
621.00,380.09
620.00,376.41
619.00,563.19
618.00,153.29
617.00,434.76
616.00,590.00
615.00,393.97
614.00,148.42
613.00,169.86
612.00,206.73
611.00,173.22
610.00,147.97
609.00,660.55
608.00,301.57
607.00,519.73
606.00,212.62
605.00,391.19
604.00,623.83
603.00,395.42
602.00,70.40
601.00,143.88
600.00,336.91
599.00,155.33
598.00,62.17
597.00,192.90
596.00,296.38
595.00,198.80
594.00,73.08
593.00,109.50
592.00,174.99
591.00,103.24
590.00,42.89
589.00,110.78
588.00,335.27
587.00,249.00
586.00,76.77
585.00,332.86
584.00,307.77
583.00,197.40
582.00,118.90
581.00,118.97
580.00,126.46
579.00,89.28
578.00,69.74
577.00,331.71
576.00,374.36
575.00,878.80
574.00,179.51
573.00,500.42
572.00,577.22
571.00,196.35
570.00,59.42
569.00,85.62
568.00,166.67
567.00,166.63
566.00,49.33
565.00,196.66
564.00,281.19
563.00,90.79
562.00,17.11
561.00,75.24
560.00,385.76
559.00,354.21
558.00,113.21
557.00,191.16
556.00,133.05
555.00,85.05
554.00,26.30
553.00,68.66
552.00,115.34
551.00,112.01
550.00,96.51
549.00,180.85
548.00,187.79
547.00,511.26
546.00,44.07
545.00,270.18
544.00,3238.85
543.00,575.61
542.00,201.63
541.00,364.71
540.00,255.14
539.00,453.86
538.00,97.13
537.00,230.24
536.00,738.89
535.00,344.38
534.00,155.51
533.00,215.11
532.00,161.00
531.00,111.79
530.00,7.64
529.00,76.00
528.00,709.00
527.00,179.81
526.00,57.32
525.00,238.38
524.00,406.34
523.00,109.78
522.00,25.92
521.00,156.17
520.00,844.42
519.00,330.82
518.00,110.81
517.00,170.35
516.00,115.08
515.00,72.13
514.00,37.35
513.00,89.70
512.00,184.16
511.00,114.13
510.00,78.57
509.00,263.66
508.00,362.42
507.00,456.97
506.00,210.90
505.00,655.55
504.00,381.12
503.00,384.74
502.00,264.11
501.00,489.29
500.00,225.73
499.00,257.64
498.00,143.67
497.00,263.26
496.00,278.69
495.00,411.14
494.00,136.31
493.00,510.72
492.00,256.87
491.00,210.51
490.00,258.09
489.00,175.90
488.00,164.76
487.00,256.22
486.00,142.42
485.00,433.46
484.00,495.37
483.00,262.05
482.00,72.31
481.00,148.63
480.00,191.92
479.00,125.26
478.00,81.13
477.00,254.33
476.00,272.98
475.00,426.14
474.00,65.37
473.00,135.66
472.00,314.99
471.00,106.64
470.00,46.28
469.00,143.51
468.00,209.65
467.00,75.54
466.00,-0.77
465.00,54.76
464.00,255.13
463.00,116.11
462.00,11.66
461.00,193.67
460.00,463.81
459.00,448.08
458.00,553.41
457.00,204.27
456.00,194.82
455.00,279.44
454.00,82.10
453.00,152.02
452.00,255.77
451.00,95.42
450.00,17.51
