Created as New Dataset,Sample 002 By Administrator Date Monday, October 27 2025
cm-1,%T
4000.00,101.28
3999.00,101.28
3998.00,101.29
3997.00,101.29
3996.00,101.30
3995.00,101.29
3994.00,101.30
3993.00,101.32
3992.00,101.33
3991.00,101.32
3990.00,101.31
3989.00,101.30
3988.00,101.30
3987.00,101.29
3986.00,101.29
3985.00,101.28
3984.00,101.29
3983.00,101.30
3982.00,101.30
3981.00,101.30
3980.00,101.31
3979.00,101.31
3978.00,101.31
3977.00,101.31
3976.00,101.31
3975.00,101.32
3974.00,101.34
3973.00,101.34
3972.00,101.34
3971.00,101.34
3970.00,101.33
3969.00,101.32
3968.00,101.32
3967.00,101.32
3966.00,101.32
3965.00,101.32
3964.00,101.31
3963.00,101.30
3962.00,101.30
3961.00,101.32
3960.00,101.35
3959.00,101.36
3958.00,101.34
3957.00,101.32
3956.00,101.31
3955.00,101.32
3954.00,101.35
3953.00,101.39
3952.00,101.42
3951.00,101.43
3950.00,101.41
3949.00,101.38
3948.00,101.36
3947.00,101.39
3946.00,101.47
3945.00,101.54
3944.00,101.53
3943.00,101.47
3942.00,101.43
3941.00,101.44
3940.00,101.44
3939.00,101.40
3938.00,101.32
3937.00,101.27
3936.00,101.29
3935.00,101.33
3934.00,101.32
3933.00,101.30
3932.00,101.31
3931.00,101.38
3930.00,101.44
3929.00,101.49
3928.00,101.54
3927.00,101.58
3926.00,101.57
3925.00,101.49
3924.00,101.45
3923.00,101.49
3922.00,101.51
3921.00,101.44
3920.00,101.32
3919.00,101.26
3918.00,101.27
3917.00,101.28
3916.00,101.30
3915.00,101.36
3914.00,101.42
3913.00,101.40
3912.00,101.32
3911.00,101.28
3910.00,101.29
3909.00,101.33
3908.00,101.40
3907.00,101.54
3906.00,101.65
3905.00,101.61
3904.00,101.44
3903.00,101.33
3902.00,101.38
3901.00,101.49
3900.00,101.51
3899.00,101.46
3898.00,101.44
3897.00,101.46
3896.00,101.43
3895.00,101.39
3894.00,101.44
3893.00,101.56
3892.00,101.58
3891.00,101.41
3890.00,101.22
3889.00,101.19
3888.00,101.25
3887.00,101.18
3886.00,101.01
3885.00,101.02
3884.00,101.28
3883.00,101.59
3882.00,101.67
3881.00,101.48
3880.00,101.31
3879.00,101.33
3878.00,101.46
3877.00,101.55
3876.00,101.44
3875.00,101.18
3874.00,101.06
3873.00,101.25
3872.00,101.56
3871.00,101.56
3870.00,101.22
3869.00,101.02
3868.00,101.26
3867.00,101.62
3866.00,101.61
3865.00,101.35
3864.00,101.26
3863.00,101.40
3862.00,101.46
3861.00,101.35
3860.00,101.13
3859.00,100.84
3858.00,100.50
3857.00,100.30
3856.00,100.39
3855.00,100.53
3854.00,100.42
3853.00,100.29
3852.00,100.43
3851.00,100.80
3850.00,101.05
3849.00,101.10
3848.00,101.11
3847.00,101.16
3846.00,101.18
3845.00,101.17
3844.00,101.15
3843.00,101.13
3842.00,101.08
3841.00,101.11
3840.00,101.24
3839.00,101.35
3838.00,101.37
3837.00,101.34
3836.00,101.35
3835.00,101.43
3834.00,101.49
3833.00,101.47
3832.00,101.35
3831.00,101.24
3830.00,101.20
3829.00,101.25
3828.00,101.24
3827.00,101.10
3826.00,100.94
3825.00,100.96
3824.00,101.20
3823.00,101.34
3822.00,101.15
3821.00,100.86
3820.00,100.80
3819.00,101.05
3818.00,101.29
3817.00,101.15
3816.00,100.78
3815.00,100.68
3814.00,100.96
3813.00,101.24
3812.00,101.21
3811.00,100.98
3810.00,100.91
3809.00,101.05
3808.00,101.07
3807.00,100.85
3806.00,100.63
3805.00,100.71
3804.00,100.99
3803.00,101.11
3802.00,100.93
3801.00,100.82
3800.00,100.98
3799.00,101.24
3798.00,101.33
3797.00,101.20
3796.00,101.11
3795.00,101.20
3794.00,101.34
3793.00,101.37
3792.00,101.29
3791.00,101.23
3790.00,101.25
3789.00,101.28
3788.00,101.26
3787.00,101.21
3786.00,101.16
3785.00,101.15
3784.00,101.18
3783.00,101.25
3782.00,101.29
3781.00,101.24
3780.00,101.12
3779.00,101.10
3778.00,101.22
3777.00,101.37
3776.00,101.39
3775.00,101.25
3774.00,101.11
3773.00,101.11
3772.00,101.15
3771.00,101.08
3770.00,101.00
3769.00,101.09
3768.00,101.28
3767.00,101.36
3766.00,101.24
3765.00,101.11
3764.00,101.12
3763.00,101.24
3762.00,101.26
3761.00,101.14
3760.00,101.06
3759.00,101.13
3758.00,101.15
3757.00,100.99
3756.00,100.75
3755.00,100.51
3754.00,100.21
3753.00,99.86
3752.00,99.67
3751.00,99.72
3750.00,99.75
3749.00,99.64
3748.00,99.68
3747.00,100.02
3746.00,100.28
3745.00,100.10
3744.00,99.93
3743.00,100.13
3742.00,100.50
3741.00,100.62
3740.00,100.46
3739.00,100.43
3738.00,100.67
3737.00,100.84
3736.00,100.87
3735.00,101.00
3734.00,101.22
3733.00,101.26
3732.00,101.08
3731.00,100.93
3730.00,100.98
3729.00,101.11
3728.00,101.15
3727.00,101.08
3726.00,101.08
3725.00,101.19
3724.00,101.28
3723.00,101.28
3722.00,101.23
3721.00,101.23
3720.00,101.25
3719.00,101.27
3718.00,101.20
3717.00,101.07
3716.00,100.96
3715.00,100.90
3714.00,100.81
3713.00,100.70
3712.00,100.72
3711.00,100.89
3710.00,101.07
3709.00,101.17
3708.00,101.20
3707.00,101.17
3706.00,101.13
3705.00,101.14
3704.00,101.18
3703.00,101.21
3702.00,101.21
3701.00,101.23
3700.00,101.28
3699.00,101.32
3698.00,101.25
3697.00,101.08
3696.00,100.99
3695.00,101.03
3694.00,101.02
3693.00,100.89
3692.00,100.79
3691.00,100.89
3690.00,101.03
3689.00,100.99
3688.00,100.85
3687.00,100.82
3686.00,100.94
3685.00,101.04
3684.00,101.02
3683.00,100.96
3682.00,100.94
3681.00,100.86
3680.00,100.69
3679.00,100.64
3678.00,100.82
3677.00,100.92
3676.00,100.70
3675.00,100.53
3674.00,100.71
3673.00,101.16
3672.00,101.42
3671.00,101.20
3670.00,100.92
3669.00,100.93
3668.00,101.12
3667.00,101.26
3666.00,101.23
3665.00,101.12
3664.00,101.04
3663.00,101.03
3662.00,101.04
3661.00,100.99
3660.00,100.94
3659.00,101.00
3658.00,101.08
3657.00,101.04
3656.00,100.91
3655.00,100.86
3654.00,100.96
3653.00,101.05
3652.00,101.00
3651.00,100.94
3650.00,101.06
3649.00,101.17
3648.00,101.10
3647.00,101.02
3646.00,101.07
3645.00,101.17
3644.00,101.14
3643.00,101.03
3642.00,100.96
3641.00,100.98
3640.00,100.99
3639.00,100.95
3638.00,100.91
3637.00,100.92
3636.00,100.94
3635.00,100.85
3634.00,100.66
3633.00,100.54
3632.00,100.61
3631.00,100.75
3630.00,100.72
3629.00,100.60
3628.00,100.59
3627.00,100.70
3626.00,100.82
3625.00,100.81
3624.00,100.74
3623.00,100.80
3622.00,101.02
3621.00,101.24
3620.00,101.31
3619.00,101.25
3618.00,101.13
3617.00,101.04
3616.00,100.98
3615.00,100.90
3614.00,100.78
3613.00,100.70
3612.00,100.73
3611.00,100.78
3610.00,100.73
3609.00,100.62
3608.00,100.60
3607.00,100.73
3606.00,100.88
3605.00,100.94
3604.00,100.89
3603.00,100.80
3602.00,100.72
3601.00,100.67
3600.00,100.71
3599.00,100.80
3598.00,100.89
3597.00,100.93
3596.00,100.94
3595.00,100.93
3594.00,100.88
3593.00,100.82
3592.00,100.78
3591.00,100.79
3590.00,100.79
3589.00,100.80
3588.00,100.85
3587.00,100.95
3586.00,101.03
3585.00,101.02
3584.00,100.96
3583.00,100.90
3582.00,100.86
3581.00,100.85
3580.00,100.86
3579.00,100.87
3578.00,100.86
3577.00,100.83
3576.00,100.80
3575.00,100.79
3574.00,100.79
3573.00,100.78
3572.00,100.79
3571.00,100.82
3570.00,100.84
3569.00,100.82
3568.00,100.79
3567.00,100.84
3566.00,100.96
3565.00,101.04
3564.00,101.03
3563.00,100.97
3562.00,100.89
3561.00,100.85
3560.00,100.84
3559.00,100.83
3558.00,100.82
3557.00,100.80
3556.00,100.80
3555.00,100.79
3554.00,100.76
3553.00,100.73
3552.00,100.72
3551.00,100.76
3550.00,100.79
3549.00,100.79
3548.00,100.76
3547.00,100.75
3546.00,100.78
3545.00,100.82
3544.00,100.83
3543.00,100.82
3542.00,100.80
3541.00,100.77
3540.00,100.75
3539.00,100.75
3538.00,100.76
3537.00,100.75
3536.00,100.73
3535.00,100.73
3534.00,100.74
3533.00,100.72
3532.00,100.68
3531.00,100.66
3530.00,100.66
3529.00,100.67
3528.00,100.67
3527.00,100.70
3526.00,100.75
3525.00,100.75
3524.00,100.73
3523.00,100.71
3522.00,100.72
3521.00,100.73
3520.00,100.72
3519.00,100.69
3518.00,100.67
3517.00,100.65
3516.00,100.64
3515.00,100.63
3514.00,100.63
3513.00,100.63
3512.00,100.63
3511.00,100.64
3510.00,100.64
3509.00,100.64
3508.00,100.64
3507.00,100.65
3506.00,100.63
3505.00,100.60
3504.00,100.59
3503.00,100.62
3502.00,100.67
3501.00,100.68
3500.00,100.65
3499.00,100.61
3498.00,100.57
3497.00,100.55
3496.00,100.55
3495.00,100.57
3494.00,100.58
3493.00,100.58
3492.00,100.56
3491.00,100.56
3490.00,100.56
3489.00,100.55
3488.00,100.54
3487.00,100.55
3486.00,100.57
3485.00,100.57
3484.00,100.55
3483.00,100.53
3482.00,100.53
3481.00,100.54
3480.00,100.55
3479.00,100.55
3478.00,100.54
3477.00,100.51
3476.00,100.50
3475.00,100.50
3474.00,100.52
3473.00,100.52
3472.00,100.51
3471.00,100.50
3470.00,100.49
3469.00,100.48
3468.00,100.47
3467.00,100.47
3466.00,100.48
3465.00,100.49
3464.00,100.49
3463.00,100.49
3462.00,100.49
3461.00,100.49
3460.00,100.50
3459.00,100.49
3458.00,100.49
3457.00,100.47
3456.00,100.46
3455.00,100.46
3454.00,100.45
3453.00,100.45
3452.00,100.44
3451.00,100.45
3450.00,100.45
3449.00,100.45
3448.00,100.44
3447.00,100.44
3446.00,100.47
3445.00,100.48
3444.00,100.48
3443.00,100.45
3442.00,100.44
3441.00,100.44
3440.00,100.44
3439.00,100.43
3438.00,100.42
3437.00,100.41
3436.00,100.41
3435.00,100.41
3434.00,100.41
3433.00,100.41
3432.00,100.41
3431.00,100.40
3430.00,100.41
3429.00,100.41
3428.00,100.41
3427.00,100.41
3426.00,100.41
3425.00,100.41
3424.00,100.41
3423.00,100.41
3422.00,100.42
3421.00,100.42
3420.00,100.42
3419.00,100.43
3418.00,100.43
3417.00,100.43
3416.00,100.41
3415.00,100.40
3414.00,100.39
3413.00,100.39
3412.00,100.39
3411.00,100.38
3410.00,100.39
3409.00,100.39
3408.00,100.39
3407.00,100.38
3406.00,100.38
3405.00,100.38
3404.00,100.37
3403.00,100.36
3402.00,100.37
3401.00,100.37
3400.00,100.38
3399.00,100.38
3398.00,100.38
3397.00,100.38
3396.00,100.38
3395.00,100.38
3394.00,100.38
3393.00,100.37
3392.00,100.37
3391.00,100.38
3390.00,100.39
3389.00,100.38
3388.00,100.38
3387.00,100.38
3386.00,100.39
3385.00,100.40
3384.00,100.41
3383.00,100.41
3382.00,100.41
3381.00,100.40
3380.00,100.39
3379.00,100.39
3378.00,100.39
3377.00,100.38
3376.00,100.38
3375.00,100.38
3374.00,100.39
3373.00,100.39
3372.00,100.39
3371.00,100.39
3370.00,100.40
3369.00,100.39
3368.00,100.38
3367.00,100.38
3366.00,100.38
3365.00,100.39
3364.00,100.41
3363.00,100.42
3362.00,100.42
3361.00,100.41
3360.00,100.41
3359.00,100.42
3358.00,100.42
3357.00,100.42
3356.00,100.43
3355.00,100.43
3354.00,100.43
3353.00,100.43
3352.00,100.42
3351.00,100.42
3350.00,100.42
3349.00,100.42
3348.00,100.43
3347.00,100.43
3346.00,100.44
3345.00,100.44
3344.00,100.44
3343.00,100.44
3342.00,100.43
3341.00,100.43
3340.00,100.43
3339.00,100.43
3338.00,100.44
3337.00,100.44
3336.00,100.45
3335.00,100.46
3334.00,100.46
3333.00,100.46
3332.00,100.46
3331.00,100.45
3330.00,100.45
3329.00,100.45
3328.00,100.45
3327.00,100.45
3326.00,100.46
3325.00,100.46
3324.00,100.46
3323.00,100.47
3322.00,100.48
3321.00,100.48
3320.00,100.48
3319.00,100.48
3318.00,100.48
3317.00,100.47
3316.00,100.46
3315.00,100.46
3314.00,100.46
3313.00,100.46
3312.00,100.47
3311.00,100.46
3310.00,100.46
3309.00,100.45
3308.00,100.46
3307.00,100.46
3306.00,100.47
3305.00,100.47
3304.00,100.47
3303.00,100.48
3302.00,100.50
3301.00,100.50
3300.00,100.50
3299.00,100.50
3298.00,100.49
3297.00,100.48
3296.00,100.47
3295.00,100.47
3294.00,100.46
3293.00,100.46
3292.00,100.46
3291.00,100.47
3290.00,100.49
3289.00,100.49
3288.00,100.49
3287.00,100.50
3286.00,100.51
3285.00,100.51
3284.00,100.51
3283.00,100.52
3282.00,100.52
3281.00,100.52
3280.00,100.51
3279.00,100.50
3278.00,100.49
3277.00,100.48
3276.00,100.47
3275.00,100.47
3274.00,100.48
3273.00,100.49
3272.00,100.50
3271.00,100.51
3270.00,100.51
3269.00,100.51
3268.00,100.51
3267.00,100.52
3266.00,100.52
3265.00,100.52
3264.00,100.52
3263.00,100.53
3262.00,100.53
3261.00,100.52
3260.00,100.52
3259.00,100.52
3258.00,100.52
3257.00,100.52
3256.00,100.51
3255.00,100.51
3254.00,100.52
3253.00,100.53
3252.00,100.54
3251.00,100.54
3250.00,100.55
3249.00,100.54
3248.00,100.53
3247.00,100.52
3246.00,100.51
3245.00,100.52
3244.00,100.54
3243.00,100.56
3242.00,100.56
3241.00,100.55
3240.00,100.55
3239.00,100.55
3238.00,100.55
3237.00,100.55
3236.00,100.54
3235.00,100.54
3234.00,100.54
3233.00,100.54
3232.00,100.54
3231.00,100.56
3230.00,100.57
3229.00,100.57
3228.00,100.58
3227.00,100.58
3226.00,100.59
3225.00,100.58
3224.00,100.57
3223.00,100.57
3222.00,100.56
3221.00,100.56
3220.00,100.56
3219.00,100.57
3218.00,100.58
3217.00,100.58
3216.00,100.57
3215.00,100.56
3214.00,100.57
3213.00,100.58
3212.00,100.58
3211.00,100.58
3210.00,100.59
3209.00,100.60
3208.00,100.61
3207.00,100.62
3206.00,100.63
3205.00,100.62
3204.00,100.62
3203.00,100.63
3202.00,100.62
3201.00,100.61
3200.00,100.60
3199.00,100.60
3198.00,100.60
3197.00,100.61
3196.00,100.63
3195.00,100.65
3194.00,100.65
3193.00,100.65
3192.00,100.65
3191.00,100.65
3190.00,100.65
3189.00,100.65
3188.00,100.65
3187.00,100.65
3186.00,100.65
3185.00,100.65
3184.00,100.66
3183.00,100.67
3182.00,100.66
3181.00,100.65
3180.00,100.64
3179.00,100.63
3178.00,100.63
3177.00,100.65
3176.00,100.66
3175.00,100.68
3174.00,100.68
3173.00,100.68
3172.00,100.68
3171.00,100.69
3170.00,100.69
3169.00,100.69
3168.00,100.69
3167.00,100.70
3166.00,100.70
3165.00,100.70
3164.00,100.71
3163.00,100.71
3162.00,100.71
3161.00,100.71
3160.00,100.71
3159.00,100.71
3158.00,100.71
3157.00,100.72
3156.00,100.72
3155.00,100.73
3154.00,100.73
3153.00,100.73
3152.00,100.73
3151.00,100.73
3150.00,100.73
3149.00,100.73
3148.00,100.74
3147.00,100.75
3146.00,100.75
3145.00,100.75
3144.00,100.75
3143.00,100.75
3142.00,100.75
3141.00,100.75
3140.00,100.75
3139.00,100.76
3138.00,100.76
3137.00,100.75
3136.00,100.74
3135.00,100.74
3134.00,100.73
3133.00,100.73
3132.00,100.75
3131.00,100.76
3130.00,100.76
3129.00,100.75
3128.00,100.75
3127.00,100.75
3126.00,100.75
3125.00,100.75
3124.00,100.75
3123.00,100.75
3122.00,100.75
3121.00,100.75
3120.00,100.75
3119.00,100.75
3118.00,100.75
3117.00,100.75
3116.00,100.75
3115.00,100.77
3114.00,100.78
3113.00,100.79
3112.00,100.80
3111.00,100.80
3110.00,100.79
3109.00,100.80
3108.00,100.80
3107.00,100.81
3106.00,100.80
3105.00,100.80
3104.00,100.80
3103.00,100.79
3102.00,100.78
3101.00,100.78
3100.00,100.79
3099.00,100.80
3098.00,100.79
3097.00,100.78
3096.00,100.78
3095.00,100.80
3094.00,100.81
3093.00,100.82
3092.00,100.82
3091.00,100.82
3090.00,100.83
3089.00,100.83
3088.00,100.83
3087.00,100.83
3086.00,100.83
3085.00,100.82
3084.00,100.82
3083.00,100.81
3082.00,100.81
3081.00,100.81
3080.00,100.81
3079.00,100.81
3078.00,100.82
3077.00,100.83
3076.00,100.84
3075.00,100.85
3074.00,100.85
3073.00,100.85
3072.00,100.85
3071.00,100.85
3070.00,100.84
3069.00,100.83
3068.00,100.81
3067.00,100.81
3066.00,100.82
3065.00,100.83
3064.00,100.85
3063.00,100.87
3062.00,100.87
3061.00,100.86
3060.00,100.86
3059.00,100.85
3058.00,100.84
3057.00,100.84
3056.00,100.85
3055.00,100.87
3054.00,100.87
3053.00,100.87
3052.00,100.86
3051.00,100.85
3050.00,100.85
3049.00,100.85
3048.00,100.85
3047.00,100.87
3046.00,100.87
3045.00,100.87
3044.00,100.88
3043.00,100.88
3042.00,100.88
3041.00,100.88
3040.00,100.88
3039.00,100.88
3038.00,100.88
3037.00,100.87
3036.00,100.86
3035.00,100.86
3034.00,100.85
3033.00,100.85
3032.00,100.85
3031.00,100.87
3030.00,100.88
3029.00,100.89
3028.00,100.89
3027.00,100.88
3026.00,100.88
3025.00,100.88
3024.00,100.89
3023.00,100.89
3022.00,100.89
3021.00,100.89
3020.00,100.88
3019.00,100.87
3018.00,100.86
3017.00,100.86
3016.00,100.86
3015.00,100.87
3014.00,100.87
3013.00,100.88
3012.00,100.88
3011.00,100.89
3010.00,100.90
3009.00,100.90
3008.00,100.90
3007.00,100.90
3006.00,100.90
3005.00,100.90
3004.00,100.90
3003.00,100.90
3002.00,100.90
3001.00,100.90
3000.00,100.90
2999.00,100.90
2998.00,100.90
2997.00,100.91
2996.00,100.91
2995.00,100.91
2994.00,100.91
2993.00,100.91
2992.00,100.91
2991.00,100.91
2990.00,100.91
2989.00,100.91
2988.00,100.91
2987.00,100.92
2986.00,100.92
2985.00,100.91
2984.00,100.91
2983.00,100.91
2982.00,100.91
2981.00,100.91
2980.00,100.91
2979.00,100.91
2978.00,100.92
2977.00,100.91
2976.00,100.91
2975.00,100.91
2974.00,100.90
2973.00,100.90
2972.00,100.90
2971.00,100.91
2970.00,100.91
2969.00,100.91
2968.00,100.91
2967.00,100.91
2966.00,100.91
2965.00,100.91
2964.00,100.92
2963.00,100.92
2962.00,100.92
2961.00,100.92
2960.00,100.92
2959.00,100.93
2958.00,100.93
2957.00,100.92
2956.00,100.92
2955.00,100.91
2954.00,100.90
2953.00,100.90
2952.00,100.90
2951.00,100.90
2950.00,100.91
2949.00,100.90
2948.00,100.90
2947.00,100.90
2946.00,100.90
2945.00,100.90
2944.00,100.91
2943.00,100.92
2942.00,100.92
2941.00,100.92
2940.00,100.91
2939.00,100.91
2938.00,100.91
2937.00,100.91
2936.00,100.91
2935.00,100.91
2934.00,100.90
2933.00,100.90
2932.00,100.90
2931.00,100.90
2930.00,100.90
2929.00,100.90
2928.00,100.90
2927.00,100.91
2926.00,100.93
2925.00,100.94
2924.00,100.95
2923.00,100.96
2922.00,100.97
2921.00,100.98
2920.00,100.99
2919.00,100.99
2918.00,100.99
2917.00,100.99
2916.00,100.98
2915.00,100.97
2914.00,100.97
2913.00,100.96
2912.00,100.95
2911.00,100.94
2910.00,100.93
2909.00,100.93
2908.00,100.93
2907.00,100.93
2906.00,100.93
2905.00,100.93
2904.00,100.93
2903.00,100.93
2902.00,100.93
2901.00,100.93
2900.00,100.94
2899.00,100.94
2898.00,100.94
2897.00,100.94
2896.00,100.93
2895.00,100.93
2894.00,100.93
2893.00,100.93
2892.00,100.94
2891.00,100.94
2890.00,100.94
2889.00,100.94
2888.00,100.94
2887.00,100.94
2886.00,100.95
2885.00,100.95
2884.00,100.95
2883.00,100.95
2882.00,100.94
2881.00,100.94
2880.00,100.94
2879.00,100.94
2878.00,100.94
2877.00,100.93
2876.00,100.93
2875.00,100.92
2874.00,100.92
2873.00,100.92
2872.00,100.93
2871.00,100.93
2870.00,100.93
2869.00,100.93
2868.00,100.93
2867.00,100.93
2866.00,100.92
2865.00,100.92
2864.00,100.92
2863.00,100.93
2862.00,100.93
2861.00,100.93
2860.00,100.93
2859.00,100.93
2858.00,100.93
2857.00,100.94
2856.00,100.94
2855.00,100.95
2854.00,100.96
2853.00,100.97
2852.00,100.98
2851.00,100.99
2850.00,100.99
2849.00,100.99
2848.00,100.99
2847.00,100.98
2846.00,100.96
2845.00,100.95
2844.00,100.95
2843.00,100.95
2842.00,100.95
2841.00,100.94
2840.00,100.94
2839.00,100.94
2838.00,100.93
2837.00,100.93
2836.00,100.93
2835.00,100.94
2834.00,100.94
2833.00,100.94
2832.00,100.94
2831.00,100.94
2830.00,100.93
2829.00,100.93
2828.00,100.93
2827.00,100.93
2826.00,100.93
2825.00,100.93
2824.00,100.94
2823.00,100.94
2822.00,100.94
2821.00,100.93
2820.00,100.93
2819.00,100.94
2818.00,100.94
2817.00,100.94
2816.00,100.94
2815.00,100.94
2814.00,100.94
2813.00,100.94
2812.00,100.94
2811.00,100.94
2810.00,100.94
2809.00,100.94
2808.00,100.94
2807.00,100.95
2806.00,100.95
2805.00,100.95
2804.00,100.95
2803.00,100.95
2802.00,100.94
2801.00,100.94
2800.00,100.94
2799.00,100.94
2798.00,100.94
2797.00,100.93
2796.00,100.93
2795.00,100.93
2794.00,100.93
2793.00,100.93
2792.00,100.93
2791.00,100.93
2790.00,100.93
2789.00,100.93
2788.00,100.93
2787.00,100.94
2786.00,100.93
2785.00,100.93
2784.00,100.93
2783.00,100.93
2782.00,100.93
2781.00,100.93
2780.00,100.94
2779.00,100.94
2778.00,100.94
2777.00,100.95
2776.00,100.95
2775.00,100.95
2774.00,100.95
2773.00,100.94
2772.00,100.94
2771.00,100.94
2770.00,100.94
2769.00,100.94
2768.00,100.94
2767.00,100.94
2766.00,100.94
2765.00,100.93
2764.00,100.94
2763.00,100.94
2762.00,100.93
2761.00,100.93
2760.00,100.93
2759.00,100.94
2758.00,100.93
2757.00,100.93
2756.00,100.94
2755.00,100.94
2754.00,100.94
2753.00,100.93
2752.00,100.94
2751.00,100.94
2750.00,100.93
2749.00,100.93
2748.00,100.93
2747.00,100.93
2746.00,100.93
2745.00,100.92
2744.00,100.93
2743.00,100.93
2742.00,100.92
2741.00,100.92
2740.00,100.92
2739.00,100.92
2738.00,100.92
2737.00,100.92
2736.00,100.93
2735.00,100.93
2734.00,100.93
2733.00,100.93
2732.00,100.93
2731.00,100.93
2730.00,100.92
2729.00,100.92
2728.00,100.92
2727.00,100.92
2726.00,100.92
2725.00,100.92
2724.00,100.92
2723.00,100.92
2722.00,100.92
2721.00,100.92
2720.00,100.93
2719.00,100.93
2718.00,100.93
2717.00,100.93
2716.00,100.93
2715.00,100.93
2714.00,100.93
2713.00,100.93
2712.00,100.93
2711.00,100.93
2710.00,100.93
2709.00,100.93
2708.00,100.93
2707.00,100.93
2706.00,100.93
2705.00,100.93
2704.00,100.93
2703.00,100.92
2702.00,100.92
2701.00,100.92
2700.00,100.92
2699.00,100.92
2698.00,100.92
2697.00,100.91
2696.00,100.91
2695.00,100.91
2694.00,100.91
2693.00,100.92
2692.00,100.92
2691.00,100.92
2690.00,100.92
2689.00,100.92
2688.00,100.92
2687.00,100.92
2686.00,100.91
2685.00,100.91
2684.00,100.92
2683.00,100.92
2682.00,100.92
2681.00,100.92
2680.00,100.92
2679.00,100.92
2678.00,100.92
2677.00,100.92
2676.00,100.92
2675.00,100.92
2674.00,100.92
2673.00,100.92
2672.00,100.92
2671.00,100.92
2670.00,100.92
2669.00,100.91
2668.00,100.92
2667.00,100.92
2666.00,100.91
2665.00,100.91
2664.00,100.91
2663.00,100.91
2662.00,100.91
2661.00,100.91
2660.00,100.91
2659.00,100.91
2658.00,100.91
2657.00,100.91
2656.00,100.91
2655.00,100.91
2654.00,100.91
2653.00,100.91
2652.00,100.91
2651.00,100.91
2650.00,100.91
2649.00,100.91
2648.00,100.91
2647.00,100.91
2646.00,100.91
2645.00,100.91
2644.00,100.91
2643.00,100.91
2642.00,100.91
2641.00,100.91
2640.00,100.91
2639.00,100.91
2638.00,100.91
2637.00,100.90
2636.00,100.91
2635.00,100.91
2634.00,100.91
2633.00,100.92
2632.00,100.92
2631.00,100.91
2630.00,100.91
2629.00,100.90
2628.00,100.90
2627.00,100.91
2626.00,100.91
2625.00,100.91
2624.00,100.91
2623.00,100.90
2622.00,100.90
2621.00,100.90
2620.00,100.90
2619.00,100.90
2618.00,100.90
2617.00,100.90
2616.00,100.90
2615.00,100.91
2614.00,100.91
2613.00,100.92
2612.00,100.92
2611.00,100.92
2610.00,100.91
2609.00,100.91
2608.00,100.91
2607.00,100.91
2606.00,100.91
2605.00,100.91
2604.00,100.91
2603.00,100.91
2602.00,100.90
2601.00,100.90
2600.00,100.90
2599.00,100.90
2598.00,100.90
2597.00,100.90
2596.00,100.90
2595.00,100.91
2594.00,100.90
2593.00,100.90
2592.00,100.90
2591.00,100.90
2590.00,100.90
2589.00,100.90
2588.00,100.91
2587.00,100.90
2586.00,100.90
2585.00,100.90
2584.00,100.90
2583.00,100.90
2582.00,100.90
2581.00,100.90
2580.00,100.91
2579.00,100.91
2578.00,100.91
2577.00,100.91
2576.00,100.91
2575.00,100.90
2574.00,100.90
2573.00,100.90
2572.00,100.90
2571.00,100.90
2570.00,100.90
2569.00,100.90
2568.00,100.90
2567.00,100.89
2566.00,100.89
2565.00,100.89
2564.00,100.89
2563.00,100.90
2562.00,100.90
2561.00,100.90
2560.00,100.90
2559.00,100.90
2558.00,100.90
2557.00,100.90
2556.00,100.90
2555.00,100.90
2554.00,100.90
2553.00,100.90
2552.00,100.90
2551.00,100.90
2550.00,100.90
2549.00,100.89
2548.00,100.90
2547.00,100.90
2546.00,100.89
2545.00,100.89
2544.00,100.89
2543.00,100.89
2542.00,100.89
2541.00,100.89
2540.00,100.89
2539.00,100.89
2538.00,100.88
2537.00,100.89
2536.00,100.89
2535.00,100.89
2534.00,100.89
2533.00,100.89
2532.00,100.89
2531.00,100.89
2530.00,100.89
2529.00,100.88
2528.00,100.88
2527.00,100.88
2526.00,100.88
2525.00,100.88
2524.00,100.89
2523.00,100.89
2522.00,100.89
2521.00,100.89
2520.00,100.89
2519.00,100.89
2518.00,100.89
2517.00,100.88
2516.00,100.88
2515.00,100.89
2514.00,100.89
2513.00,100.89
2512.00,100.89
2511.00,100.89
2510.00,100.88
2509.00,100.88
2508.00,100.89
2507.00,100.89
2506.00,100.89
2505.00,100.88
2504.00,100.88
2503.00,100.88
2502.00,100.87
2501.00,100.87
2500.00,100.88
2499.00,100.88
2498.00,100.88
2497.00,100.88
2496.00,100.89
2495.00,100.89
2494.00,100.88
2493.00,100.88
2492.00,100.88
2491.00,100.88
2490.00,100.87
2489.00,100.87
2488.00,100.87
2487.00,100.87
2486.00,100.87
2485.00,100.87
2484.00,100.88
2483.00,100.88
2482.00,100.88
2481.00,100.88
2480.00,100.88
2479.00,100.88
2478.00,100.87
2477.00,100.87
2476.00,100.87
2475.00,100.87
2474.00,100.87
2473.00,100.87
2472.00,100.87
2471.00,100.87
2470.00,100.87
2469.00,100.87
2468.00,100.87
2467.00,100.87
2466.00,100.87
2465.00,100.87
2464.00,100.87
2463.00,100.87
2462.00,100.86
2461.00,100.86
2460.00,100.86
2459.00,100.86
2458.00,100.86
2457.00,100.87
2456.00,100.87
2455.00,100.87
2454.00,100.86
2453.00,100.86
2452.00,100.86
2451.00,100.86
2450.00,100.86
2449.00,100.86
2448.00,100.86
2447.00,100.86
2446.00,100.86
2445.00,100.85
2444.00,100.85
2443.00,100.85
2442.00,100.85
2441.00,100.85
2440.00,100.86
2439.00,100.86
2438.00,100.86
2437.00,100.86
2436.00,100.87
2435.00,100.87
2434.00,100.86
2433.00,100.86
2432.00,100.86
2431.00,100.86
2430.00,100.85
2429.00,100.85
2428.00,100.85
2427.00,100.85
2426.00,100.85
2425.00,100.85
2424.00,100.86
2423.00,100.86
2422.00,100.85
2421.00,100.85
2420.00,100.85
2419.00,100.86
2418.00,100.86
2417.00,100.86
2416.00,100.86
2415.00,100.86
2414.00,100.86
2413.00,100.86
2412.00,100.86
2411.00,100.86
2410.00,100.85
2409.00,100.85
2408.00,100.85
2407.00,100.86
2406.00,100.86
2405.00,100.86
2404.00,100.86
2403.00,100.85
2402.00,100.85
2401.00,100.85
2400.00,100.85
2399.00,100.85
2398.00,100.85
2397.00,100.84
2396.00,100.85
2395.00,100.85
2394.00,100.85
2393.00,100.85
2392.00,100.85
2391.00,100.85
2390.00,100.84
2389.00,100.84
2388.00,100.84
2387.00,100.83
2386.00,100.82
2385.00,100.81
2384.00,100.80
2383.00,100.79
2382.00,100.78
2381.00,100.77
2380.00,100.77
2379.00,100.77
2378.00,100.77
2377.00,100.78
2376.00,100.79
2375.00,100.80
2374.00,100.80
2373.00,100.80
2372.00,100.79
2371.00,100.78
2370.00,100.76
2369.00,100.75
2368.00,100.76
2367.00,100.76
2366.00,100.75
2365.00,100.76
2364.00,100.76
2363.00,100.77
2362.00,100.75
2361.00,100.73
2360.00,100.70
2359.00,100.68
2358.00,100.66
2357.00,100.66
2356.00,100.67
2355.00,100.69
2354.00,100.70
2353.00,100.70
2352.00,100.69
2351.00,100.68
2350.00,100.68
2349.00,100.68
2348.00,100.68
2347.00,100.67
2346.00,100.66
2345.00,100.66
2344.00,100.65
2343.00,100.64
2342.00,100.62
2341.00,100.62
2340.00,100.63
2339.00,100.63
2338.00,100.64
2337.00,100.65
2336.00,100.65
2335.00,100.65
2334.00,100.63
2333.00,100.62
2332.00,100.60
2331.00,100.57
2330.00,100.56
2329.00,100.56
2328.00,100.58
2327.00,100.58
2326.00,100.57
2325.00,100.57
2324.00,100.58
2323.00,100.59
2322.00,100.60
2321.00,100.63
2320.00,100.65
2319.00,100.66
2318.00,100.67
2317.00,100.68
2316.00,100.68
2315.00,100.68
2314.00,100.67
2313.00,100.67
2312.00,100.67
2311.00,100.68
2310.00,100.68
2309.00,100.69
2308.00,100.69
2307.00,100.70
2306.00,100.70
2305.00,100.71
2304.00,100.72
2303.00,100.72
2302.00,100.72
2301.00,100.72
2300.00,100.73
2299.00,100.73
2298.00,100.74
2297.00,100.75
2296.00,100.75
2295.00,100.76
2294.00,100.76
2293.00,100.77
2292.00,100.78
2291.00,100.78
2290.00,100.79
2289.00,100.79
2288.00,100.79
2287.00,100.79
2286.00,100.79
2285.00,100.80
2284.00,100.81
2283.00,100.81
2282.00,100.80
2281.00,100.80
2280.00,100.80
2279.00,100.80
2278.00,100.80
2277.00,100.80
2276.00,100.80
2275.00,100.80
2274.00,100.79
2273.00,100.79
2272.00,100.79
2271.00,100.79
2270.00,100.79
2269.00,100.79
2268.00,100.80
2267.00,100.80
2266.00,100.79
2265.00,100.79
2264.00,100.80
2263.00,100.79
2262.00,100.79
2261.00,100.79
2260.00,100.80
2259.00,100.80
2258.00,100.79
2257.00,100.79
2256.00,100.79
2255.00,100.79
2254.00,100.79
2253.00,100.79
2252.00,100.79
2251.00,100.79
2250.00,100.79
2249.00,100.79
2248.00,100.80
2247.00,100.80
2246.00,100.79
2245.00,100.79
2244.00,100.80
2243.00,100.80
2242.00,100.79
2241.00,100.79
2240.00,100.79
2239.00,100.79
2238.00,100.79
2237.00,100.79
2236.00,100.79
2235.00,100.79
2234.00,100.78
2233.00,100.78
2232.00,100.78
2231.00,100.78
2230.00,100.78
2229.00,100.79
2228.00,100.80
2227.00,100.80
2226.00,100.80
2225.00,100.80
2224.00,100.80
2223.00,100.80
2222.00,100.79
2221.00,100.79
2220.00,100.79
2219.00,100.79
2218.00,100.79
2217.00,100.79
2216.00,100.79
2215.00,100.79
2214.00,100.78
2213.00,100.78
2212.00,100.79
2211.00,100.79
2210.00,100.79
2209.00,100.79
2208.00,100.79
2207.00,100.79
2206.00,100.79
2205.00,100.79
2204.00,100.79
2203.00,100.79
2202.00,100.78
2201.00,100.79
2200.00,100.79
2199.00,100.79
2198.00,100.79
2197.00,100.79
2196.00,100.80
2195.00,100.79
2194.00,100.78
2193.00,100.78
2192.00,100.78
2191.00,100.78
2190.00,100.78
2189.00,100.79
2188.00,100.80
2187.00,100.80
2186.00,100.80
2185.00,100.79
2184.00,100.79
2183.00,100.79
2182.00,100.78
2181.00,100.79
2180.00,100.79
2179.00,100.79
2178.00,100.79
2177.00,100.79
2176.00,100.79
2175.00,100.79
2174.00,100.79
2173.00,100.79
2172.00,100.80
2171.00,100.79
2170.00,100.78
2169.00,100.78
2168.00,100.78
2167.00,100.78
2166.00,100.78
2165.00,100.78
2164.00,100.79
2163.00,100.78
2162.00,100.78
2161.00,100.78
2160.00,100.78
2159.00,100.78
2158.00,100.78
2157.00,100.78
2156.00,100.79
2155.00,100.79
2154.00,100.78
2153.00,100.78
2152.00,100.78
2151.00,100.78
2150.00,100.77
2149.00,100.77
2148.00,100.78
2147.00,100.78
2146.00,100.77
2145.00,100.77
2144.00,100.77
2143.00,100.77
2142.00,100.76
2141.00,100.76
2140.00,100.77
2139.00,100.77
2138.00,100.77
2137.00,100.77
2136.00,100.77
2135.00,100.77
2134.00,100.77
2133.00,100.77
2132.00,100.78
2131.00,100.77
2130.00,100.77
2129.00,100.77
2128.00,100.77
2127.00,100.77
2126.00,100.77
2125.00,100.77
2124.00,100.77
2123.00,100.76
2122.00,100.76
2121.00,100.76
2120.00,100.77
2119.00,100.77
2118.00,100.76
2117.00,100.76
2116.00,100.77
2115.00,100.77
2114.00,100.77
2113.00,100.77
2112.00,100.78
2111.00,100.78
2110.00,100.77
2109.00,100.77
2108.00,100.77
2107.00,100.77
2106.00,100.77
2105.00,100.76
2104.00,100.77
2103.00,100.76
2102.00,100.76
2101.00,100.76
2100.00,100.77
2099.00,100.77
2098.00,100.76
2097.00,100.76
2096.00,100.77
2095.00,100.76
2094.00,100.76
2093.00,100.76
2092.00,100.77
2091.00,100.76
2090.00,100.75
2089.00,100.75
2088.00,100.76
2087.00,100.76
2086.00,100.76
2085.00,100.76
2084.00,100.77
2083.00,100.76
2082.00,100.76
2081.00,100.76
2080.00,100.77
2079.00,100.77
2078.00,100.76
2077.00,100.76
2076.00,100.77
2075.00,100.77
2074.00,100.76
2073.00,100.77
2072.00,100.78
2071.00,100.77
2070.00,100.76
2069.00,100.76
2068.00,100.77
2067.00,100.77
2066.00,100.76
2065.00,100.76
2064.00,100.77
2063.00,100.76
2062.00,100.75
2061.00,100.75
2060.00,100.76
2059.00,100.76
2058.00,100.75
2057.00,100.75
2056.00,100.76
2055.00,100.76
2054.00,100.75
2053.00,100.76
2052.00,100.76
2051.00,100.76
2050.00,100.76
2049.00,100.76
2048.00,100.76
2047.00,100.76
2046.00,100.75
2045.00,100.74
2044.00,100.75
2043.00,100.75
2042.00,100.74
2041.00,100.75
2040.00,100.76
2039.00,100.76
2038.00,100.75
2037.00,100.75
2036.00,100.76
2035.00,100.75
2034.00,100.74
2033.00,100.74
2032.00,100.75
2031.00,100.75
2030.00,100.74
2029.00,100.74
2028.00,100.75
2027.00,100.75
2026.00,100.74
2025.00,100.74
2024.00,100.75
2023.00,100.74
2022.00,100.73
2021.00,100.73
2020.00,100.75
2019.00,100.75
2018.00,100.74
2017.00,100.74
2016.00,100.75
2015.00,100.76
2014.00,100.75
2013.00,100.75
2012.00,100.75
2011.00,100.75
2010.00,100.74
2009.00,100.74
2008.00,100.75
2007.00,100.75
2006.00,100.74
2005.00,100.74
2004.00,100.75
2003.00,100.76
2002.00,100.75
2001.00,100.74
2000.00,100.74
1999.00,100.75
1998.00,100.74
1997.00,100.74
1996.00,100.74
1995.00,100.75
1994.00,100.75
1993.00,100.75
1992.00,100.76
1991.00,100.77
1990.00,100.75
1989.00,100.74
1988.00,100.73
1987.00,100.74
1986.00,100.74
1985.00,100.74
1984.00,100.75
1983.00,100.75
1982.00,100.75
1981.00,100.74
1980.00,100.74
1979.00,100.74
1978.00,100.75
1977.00,100.75
1976.00,100.74
1975.00,100.75
1974.00,100.76
1973.00,100.76
1972.00,100.74
1971.00,100.74
1970.00,100.75
1969.00,100.74
1968.00,100.72
1967.00,100.73
1966.00,100.74
1965.00,100.74
1964.00,100.73
1963.00,100.73
1962.00,100.74
1961.00,100.74
1960.00,100.74
1959.00,100.74
1958.00,100.75
1957.00,100.74
1956.00,100.73
1955.00,100.73
1954.00,100.74
1953.00,100.75
1952.00,100.74
1951.00,100.73
1950.00,100.73
1949.00,100.72
1948.00,100.69
1947.00,100.67
1946.00,100.68
1945.00,100.70
1944.00,100.72
1943.00,100.73
1942.00,100.74
1941.00,100.75
1940.00,100.75
1939.00,100.73
1938.00,100.73
1937.00,100.74
1936.00,100.73
1935.00,100.73
1934.00,100.74
1933.00,100.75
1932.00,100.75
1931.00,100.73
1930.00,100.73
1929.00,100.74
1928.00,100.74
1927.00,100.71
1926.00,100.70
1925.00,100.71
1924.00,100.71
1923.00,100.68
1922.00,100.69
1921.00,100.73
1920.00,100.78
1919.00,100.77
1918.00,100.74
1917.00,100.74
1916.00,100.73
1915.00,100.70
1914.00,100.69
1913.00,100.71
1912.00,100.71
1911.00,100.67
1910.00,100.64
1909.00,100.68
1908.00,100.73
1907.00,100.72
1906.00,100.69
1905.00,100.71
1904.00,100.74
1903.00,100.71
1902.00,100.69
1901.00,100.72
1900.00,100.75
1899.00,100.72
1898.00,100.68
1897.00,100.69
1896.00,100.72
1895.00,100.70
1894.00,100.69
1893.00,100.74
1892.00,100.79
1891.00,100.78
1890.00,100.75
1889.00,100.77
1888.00,100.79
1887.00,100.74
1886.00,100.67
1885.00,100.69
1884.00,100.73
1883.00,100.72
1882.00,100.70
1881.00,100.72
1880.00,100.76
1879.00,100.74
1878.00,100.69
1877.00,100.70
1876.00,100.73
1875.00,100.71
1874.00,100.66
1873.00,100.68
1872.00,100.75
1871.00,100.77
1870.00,100.72
1869.00,100.68
1868.00,100.67
1867.00,100.64
1866.00,100.61
1865.00,100.65
1864.00,100.72
1863.00,100.71
1862.00,100.67
1861.00,100.69
1860.00,100.74
1859.00,100.73
1858.00,100.69
1857.00,100.71
1856.00,100.76
1855.00,100.74
1854.00,100.70
1853.00,100.70
1852.00,100.71
1851.00,100.69
1850.00,100.66
1849.00,100.66
1848.00,100.66
1847.00,100.64
1846.00,100.63
1845.00,100.64
1844.00,100.64
1843.00,100.62
1842.00,100.61
1841.00,100.64
1840.00,100.66
1839.00,100.64
1838.00,100.61
1837.00,100.64
1836.00,100.68
1835.00,100.70
1834.00,100.72
1833.00,100.76
1832.00,100.80
1831.00,100.80
1830.00,100.76
1829.00,100.74
1828.00,100.75
1827.00,100.75
1826.00,100.71
1825.00,100.69
1824.00,100.73
1823.00,100.75
1822.00,100.72
1821.00,100.69
1820.00,100.73
1819.00,100.76
1818.00,100.71
1817.00,100.69
1816.00,100.74
1815.00,100.75
1814.00,100.66
1813.00,100.58
1812.00,100.59
1811.00,100.60
1810.00,100.56
1809.00,100.59
1808.00,100.69
1807.00,100.71
1806.00,100.65
1805.00,100.66
1804.00,100.75
1803.00,100.77
1802.00,100.66
1801.00,100.56
1800.00,100.57
1799.00,100.56
1798.00,100.50
1797.00,100.49
1796.00,100.56
1795.00,100.60
1794.00,100.59
1793.00,100.63
1792.00,100.72
1791.00,100.73
1790.00,100.65
1789.00,100.61
1788.00,100.64
1787.00,100.63
1786.00,100.58
1785.00,100.58
1784.00,100.61
1783.00,100.58
1782.00,100.49
1781.00,100.41
1780.00,100.45
1779.00,100.52
1778.00,100.54
1777.00,100.51
1776.00,100.50
1775.00,100.57
1774.00,100.63
1773.00,100.58
1772.00,100.55
1771.00,100.61
1770.00,100.64
1769.00,100.60
1768.00,100.58
1767.00,100.60
1766.00,100.62
1765.00,100.62
1764.00,100.71
1763.00,100.85
1762.00,100.88
1761.00,100.78
1760.00,100.71
1759.00,100.72
1758.00,100.72
1757.00,100.62
1756.00,100.52
1755.00,100.47
1754.00,100.34
1753.00,100.08
1752.00,99.88
1751.00,99.88
1750.00,99.94
1749.00,99.95
1748.00,99.99
1747.00,100.14
1746.00,100.27
1745.00,100.26
1744.00,100.28
1743.00,100.40
1742.00,100.52
1741.00,100.52
1740.00,100.49
1739.00,100.50
1738.00,100.46
1737.00,100.30
1736.00,100.09
1735.00,99.97
1734.00,99.93
1733.00,99.93
1732.00,100.00
1731.00,100.14
1730.00,100.30
1729.00,100.44
1728.00,100.52
1727.00,100.57
1726.00,100.56
1725.00,100.51
1724.00,100.51
1723.00,100.50
1722.00,100.45
1721.00,100.42
1720.00,100.44
1719.00,100.44
1718.00,100.37
1717.00,100.45
1716.00,100.57
1715.00,100.48
1714.00,100.33
1713.00,100.35
1712.00,100.46
1711.00,100.43
1710.00,100.31
1709.00,100.29
1708.00,100.36
1707.00,100.40
1706.00,100.41
1705.00,100.56
1704.00,100.65
1703.00,100.38
1702.00,99.89
1701.00,99.68
1700.00,99.85
1699.00,99.97
1698.00,99.94
1697.00,100.00
1696.00,100.16
1695.00,100.21
1694.00,100.20
1693.00,100.28
1692.00,100.35
1691.00,100.33
1690.00,100.26
1689.00,100.24
1688.00,100.26
1687.00,100.32
1686.00,100.43
1685.00,100.52
1684.00,100.47
1683.00,100.42
1682.00,100.45
1681.00,100.44
1680.00,100.37
1679.00,100.35
1678.00,100.39
1677.00,100.34
1676.00,100.22
1675.00,100.24
1674.00,100.36
1673.00,100.37
1672.00,100.26
1671.00,100.17
1670.00,100.24
1669.00,100.32
1668.00,100.35
1667.00,100.43
1666.00,100.53
1665.00,100.56
1664.00,100.47
1663.00,100.39
1662.00,100.44
1661.00,100.47
1660.00,100.41
1659.00,100.41
1658.00,100.52
1657.00,100.55
1656.00,100.48
1655.00,100.57
1654.00,100.80
1653.00,100.72
1652.00,100.38
1651.00,100.26
1650.00,100.31
1649.00,100.28
1648.00,100.23
1647.00,100.30
1646.00,100.38
1645.00,100.36
1644.00,100.30
1643.00,100.24
1642.00,100.21
1641.00,100.17
1640.00,100.12
1639.00,100.04
1638.00,99.97
1637.00,99.95
1636.00,100.00
1635.00,100.11
1634.00,100.22
1633.00,100.36
1632.00,100.41
1631.00,100.33
1630.00,100.25
1629.00,100.23
1628.00,100.24
1627.00,100.32
1626.00,100.43
1625.00,100.47
1624.00,100.38
1623.00,100.30
1622.00,100.41
1621.00,100.53
1620.00,100.50
1619.00,100.42
1618.00,100.45
1617.00,100.49
1616.00,100.40
1615.00,100.36
1614.00,100.48
1613.00,100.57
1612.00,100.44
1611.00,100.27
1610.00,100.26
1609.00,100.33
1608.00,100.32
1607.00,100.34
1606.00,100.46
1605.00,100.50
1604.00,100.42
1603.00,100.38
1602.00,100.47
1601.00,100.55
1600.00,100.52
1599.00,100.49
1598.00,100.53
1597.00,100.54
1596.00,100.46
1595.00,100.41
1594.00,100.49
1593.00,100.57
1592.00,100.55
1591.00,100.51
1590.00,100.57
1589.00,100.64
1588.00,100.61
1587.00,100.56
1586.00,100.61
1585.00,100.66
1584.00,100.57
1583.00,100.53
1582.00,100.64
1581.00,100.74
1580.00,100.67
1579.00,100.60
1578.00,100.63
1577.00,100.68
1576.00,100.57
1575.00,100.50
1574.00,100.64
1573.00,100.75
1572.00,100.70
1571.00,100.59
1570.00,100.60
1569.00,100.57
1568.00,100.41
1567.00,100.32
1566.00,100.36
1565.00,100.39
1564.00,100.39
1563.00,100.47
1562.00,100.62
1561.00,100.77
1560.00,100.74
1559.00,100.67
1558.00,100.71
1557.00,100.74
1556.00,100.74
1555.00,100.74
1554.00,100.70
1553.00,100.55
1552.00,100.41
1551.00,100.36
1550.00,100.39
1549.00,100.42
1548.00,100.40
1547.00,100.41
1546.00,100.47
1545.00,100.52
1544.00,100.53
1543.00,100.56
1542.00,100.66
1541.00,100.79
1540.00,100.71
1539.00,100.41
1538.00,100.26
1537.00,100.39
1536.00,100.51
1535.00,100.51
1534.00,100.46
1533.00,100.47
1532.00,100.52
1531.00,100.49
1530.00,100.39
1529.00,100.39
1528.00,100.49
1527.00,100.58
1526.00,100.60
1525.00,100.58
1524.00,100.64
1523.00,100.80
1522.00,100.97
1521.00,101.02
1520.00,100.90
1519.00,100.70
1518.00,100.47
1517.00,100.37
1516.00,100.44
1515.00,100.55
1514.00,100.55
1513.00,100.52
1512.00,100.58
1511.00,100.59
1510.00,100.41
1509.00,100.17
1508.00,100.19
1507.00,100.39
1506.00,100.38
1505.00,100.23
1504.00,100.28
1503.00,100.42
1502.00,100.47
1501.00,100.46
1500.00,100.54
1499.00,100.65
1498.00,100.61
1497.00,100.52
1496.00,100.52
1495.00,100.53
1494.00,100.46
1493.00,100.39
1492.00,100.40
1491.00,100.42
1490.00,100.41
1489.00,100.51
1488.00,100.68
1487.00,100.70
1486.00,100.65
1485.00,100.66
1484.00,100.67
1483.00,100.61
1482.00,100.52
1481.00,100.52
1480.00,100.59
1479.00,100.59
1478.00,100.51
1477.00,100.50
1476.00,100.58
1475.00,100.62
1474.00,100.59
1473.00,100.56
1472.00,100.57
1471.00,100.55
1470.00,100.52
1469.00,100.56
1468.00,100.64
1467.00,100.67
1466.00,100.64
1465.00,100.58
1464.00,100.57
1463.00,100.57
1462.00,100.52
1461.00,100.42
1460.00,100.36
1459.00,100.37
1458.00,100.35
1457.00,100.20
1456.00,100.06
1455.00,100.15
1454.00,100.34
1453.00,100.43
1452.00,100.49
1451.00,100.56
1450.00,100.56
1449.00,100.54
1448.00,100.57
1447.00,100.67
1446.00,100.72
1445.00,100.64
1444.00,100.59
1443.00,100.65
1442.00,100.68
1441.00,100.60
1440.00,100.54
1439.00,100.57
1438.00,100.56
1437.00,100.43
1436.00,100.38
1435.00,100.50
1434.00,100.58
1433.00,100.53
1432.00,100.50
1431.00,100.58
1430.00,100.63
1429.00,100.60
1428.00,100.56
1427.00,100.58
1426.00,100.55
1425.00,100.35
1424.00,100.24
1423.00,100.37
1422.00,100.52
1421.00,100.49
1420.00,100.42
1419.00,100.48
1418.00,100.51
1417.00,100.46
1416.00,100.46
1415.00,100.57
1414.00,100.64
1413.00,100.56
1412.00,100.50
1411.00,100.59
1410.00,100.66
1409.00,100.62
1408.00,100.57
1407.00,100.58
1406.00,100.61
1405.00,100.55
1404.00,100.49
1403.00,100.55
1402.00,100.60
1401.00,100.54
1400.00,100.46
1399.00,100.48
1398.00,100.55
1397.00,100.60
1396.00,100.66
1395.00,100.78
1394.00,100.83
1393.00,100.69
1392.00,100.52
1391.00,100.51
1390.00,100.63
1389.00,100.72
1388.00,100.73
1387.00,100.70
1386.00,100.65
1385.00,100.57
1384.00,100.52
1383.00,100.51
1382.00,100.53
1381.00,100.52
1380.00,100.49
1379.00,100.49
1378.00,100.49
1377.00,100.47
1376.00,100.42
1375.00,100.45
1374.00,100.55
1373.00,100.61
1372.00,100.59
1371.00,100.53
1370.00,100.52
1369.00,100.51
1368.00,100.49
1367.00,100.51
1366.00,100.56
1365.00,100.61
1364.00,100.64
1363.00,100.68
1362.00,100.73
1361.00,100.72
1360.00,100.66
1359.00,100.59
1358.00,100.55
1357.00,100.54
1356.00,100.52
1355.00,100.53
1354.00,100.54
1353.00,100.55
1352.00,100.53
1351.00,100.51
1350.00,100.51
1349.00,100.51
1348.00,100.51
1347.00,100.52
1346.00,100.53
1345.00,100.54
1344.00,100.52
1343.00,100.51
1342.00,100.51
1341.00,100.50
1340.00,100.51
1339.00,100.57
1338.00,100.63
1337.00,100.64
1336.00,100.60
1335.00,100.56
1334.00,100.56
1333.00,100.55
1332.00,100.54
1331.00,100.54
1330.00,100.56
1329.00,100.56
1328.00,100.54
1327.00,100.53
1326.00,100.54
1325.00,100.53
1324.00,100.51
1323.00,100.51
1322.00,100.52
1321.00,100.50
1320.00,100.46
1319.00,100.46
1318.00,100.49
1317.00,100.52
1316.00,100.52
1315.00,100.53
1314.00,100.54
1313.00,100.53
1312.00,100.51
1311.00,100.50
1310.00,100.51
1309.00,100.50
1308.00,100.48
1307.00,100.48
1306.00,100.50
1305.00,100.50
1304.00,100.48
1303.00,100.49
1302.00,100.50
1301.00,100.50
1300.00,100.48
1299.00,100.49
1298.00,100.50
1297.00,100.50
1296.00,100.48
1295.00,100.48
1294.00,100.50
1293.00,100.49
1292.00,100.48
1291.00,100.49
1290.00,100.52
1289.00,100.52
1288.00,100.49
1287.00,100.49
1286.00,100.50
1285.00,100.49
1284.00,100.48
1283.00,100.49
1282.00,100.51
1281.00,100.51
1280.00,100.49
1279.00,100.49
1278.00,100.50
1277.00,100.50
1276.00,100.48
1275.00,100.48
1274.00,100.49
1273.00,100.48
1272.00,100.45
1271.00,100.45
1270.00,100.47
1269.00,100.47
1268.00,100.46
1267.00,100.47
1266.00,100.49
1265.00,100.50
1264.00,100.49
1263.00,100.49
1262.00,100.50
1261.00,100.49
1260.00,100.47
1259.00,100.48
1258.00,100.50
1257.00,100.50
1256.00,100.49
1255.00,100.48
1254.00,100.50
1253.00,100.49
1252.00,100.47
1251.00,100.47
1250.00,100.49
1249.00,100.48
1248.00,100.46
1247.00,100.46
1246.00,100.48
1245.00,100.48
1244.00,100.46
1243.00,100.46
1242.00,100.48
1241.00,100.47
1240.00,100.45
1239.00,100.46
1238.00,100.48
1237.00,100.48
1236.00,100.46
1235.00,100.47
1234.00,100.49
1233.00,100.49
1232.00,100.47
1231.00,100.47
1230.00,100.49
1229.00,100.48
1228.00,100.45
1227.00,100.45
1226.00,100.46
1225.00,100.45
1224.00,100.44
1223.00,100.44
1222.00,100.46
1221.00,100.45
1220.00,100.42
1219.00,100.42
1218.00,100.44
1217.00,100.43
1216.00,100.42
1215.00,100.43
1214.00,100.45
1213.00,100.45
1212.00,100.43
1211.00,100.44
1210.00,100.45
1209.00,100.43
1208.00,100.40
1207.00,100.40
1206.00,100.42
1205.00,100.41
1204.00,100.39
1203.00,100.39
1202.00,100.41
1201.00,100.41
1200.00,100.39
1199.00,100.40
1198.00,100.41
1197.00,100.41
1196.00,100.39
1195.00,100.40
1194.00,100.42
1193.00,100.41
1192.00,100.39
1191.00,100.39
1190.00,100.40
1189.00,100.40
1188.00,100.38
1187.00,100.39
1186.00,100.41
1185.00,100.40
1184.00,100.38
1183.00,100.39
1182.00,100.41
1181.00,100.41
1180.00,100.40
1179.00,100.40
1178.00,100.42
1177.00,100.40
1176.00,100.37
1175.00,100.37
1174.00,100.39
1173.00,100.39
1172.00,100.38
1171.00,100.40
1170.00,100.43
1169.00,100.44
1168.00,100.44
1167.00,100.46
1166.00,100.48
1165.00,100.46
1164.00,100.43
1163.00,100.42
1162.00,100.44
1161.00,100.44
1160.00,100.42
1159.00,100.44
1158.00,100.46
1157.00,100.45
1156.00,100.43
1155.00,100.42
1154.00,100.43
1153.00,100.41
1152.00,100.38
1151.00,100.38
1150.00,100.39
1149.00,100.39
1148.00,100.38
1147.00,100.39
1146.00,100.40
1145.00,100.38
1144.00,100.35
1143.00,100.36
1142.00,100.38
1141.00,100.37
1140.00,100.33
1139.00,100.32
1138.00,100.32
1137.00,100.31
1136.00,100.30
1135.00,100.32
1134.00,100.35
1133.00,100.35
1132.00,100.33
1131.00,100.34
1130.00,100.36
1129.00,100.34
1128.00,100.32
1127.00,100.34
1126.00,100.37
1125.00,100.36
1124.00,100.34
1123.00,100.34
1122.00,100.37
1121.00,100.37
1120.00,100.35
1119.00,100.35
1118.00,100.37
1117.00,100.36
1116.00,100.34
1115.00,100.35
1114.00,100.37
1113.00,100.36
1112.00,100.32
1111.00,100.33
1110.00,100.36
1109.00,100.36
1108.00,100.33
1107.00,100.33
1106.00,100.35
1105.00,100.33
1104.00,100.30
1103.00,100.32
1102.00,100.35
1101.00,100.35
1100.00,100.33
1099.00,100.36
1098.00,100.39
1097.00,100.38
1096.00,100.34
1095.00,100.34
1094.00,100.37
1093.00,100.36
1092.00,100.32
1091.00,100.33
1090.00,100.35
1089.00,100.32
1088.00,100.27
1087.00,100.28
1086.00,100.32
1085.00,100.32
1084.00,100.31
1083.00,100.32
1082.00,100.34
1081.00,100.30
1080.00,100.24
1079.00,100.23
1078.00,100.26
1077.00,100.25
1076.00,100.23
1075.00,100.25
1074.00,100.29
1073.00,100.27
1072.00,100.23
1071.00,100.24
1070.00,100.30
1069.00,100.32
1068.00,100.31
1067.00,100.34
1066.00,100.38
1065.00,100.35
1064.00,100.29
1063.00,100.27
1062.00,100.29
1061.00,100.28
1060.00,100.24
1059.00,100.26
1058.00,100.30
1057.00,100.31
1056.00,100.30
1055.00,100.33
1054.00,100.37
1053.00,100.32
1052.00,100.23
1051.00,100.20
1050.00,100.22
1049.00,100.20
1048.00,100.17
1047.00,100.21
1046.00,100.28
1045.00,100.29
1044.00,100.25
1043.00,100.23
1042.00,100.23
1041.00,100.17
1040.00,100.10
1039.00,100.10
1038.00,100.14
1037.00,100.11
1036.00,100.05
1035.00,100.06
1034.00,100.12
1033.00,100.11
1032.00,100.07
1031.00,100.11
1030.00,100.19
1029.00,100.21
1028.00,100.17
1027.00,100.19
1026.00,100.21
1025.00,100.15
1024.00,100.06
1023.00,100.08
1022.00,100.16
1021.00,100.18
1020.00,100.14
1019.00,100.15
1018.00,100.15
1017.00,100.06
1016.00,99.95
1015.00,99.94
1014.00,99.98
1013.00,99.95
1012.00,99.88
1011.00,99.91
1010.00,99.99
1009.00,99.99
1008.00,99.93
1007.00,99.94
1006.00,99.98
1005.00,99.95
1004.00,99.90
1003.00,99.95
1002.00,100.04
1001.00,100.03
1000.00,99.97
