Created as New Dataset,Sample 002 By Administrator Date Tuesday, October 21 2025
cm-1,%T
4000.00,83.49
3999.00,83.49
3998.00,83.49
3997.00,83.49
3996.00,83.48
3995.00,83.49
3994.00,83.49
3993.00,83.49
3992.00,83.49
3991.00,83.49
3990.00,83.50
3989.00,83.50
3988.00,83.50
3987.00,83.50
3986.00,83.50
3985.00,83.50
3984.00,83.50
3983.00,83.50
3982.00,83.50
3981.00,83.50
3980.00,83.50
3979.00,83.50
3978.00,83.50
3977.00,83.50
3976.00,83.50
3975.00,83.50
3974.00,83.50
3973.00,83.50
3972.00,83.51
3971.00,83.51
3970.00,83.50
3969.00,83.50
3968.00,83.50
3967.00,83.50
3966.00,83.51
3965.00,83.51
3964.00,83.51
3963.00,83.51
3962.00,83.51
3961.00,83.51
3960.00,83.51
3959.00,83.50
3958.00,83.51
3957.00,83.51
3956.00,83.51
3955.00,83.50
3954.00,83.50
3953.00,83.49
3952.00,83.50
3951.00,83.50
3950.00,83.52
3949.00,83.53
3948.00,83.55
3947.00,83.56
3946.00,83.54
3945.00,83.50
3944.00,83.48
3943.00,83.49
3942.00,83.51
3941.00,83.52
3940.00,83.52
3939.00,83.51
3938.00,83.52
3937.00,83.54
3936.00,83.54
3935.00,83.54
3934.00,83.54
3933.00,83.55
3932.00,83.55
3931.00,83.53
3930.00,83.52
3929.00,83.52
3928.00,83.52
3927.00,83.51
3926.00,83.49
3925.00,83.51
3924.00,83.54
3923.00,83.56
3922.00,83.55
3921.00,83.56
3920.00,83.59
3919.00,83.60
3918.00,83.59
3917.00,83.58
3916.00,83.57
3915.00,83.55
3914.00,83.53
3913.00,83.52
3912.00,83.53
3911.00,83.54
3910.00,83.53
3909.00,83.53
3908.00,83.52
3907.00,83.51
3906.00,83.52
3905.00,83.57
3904.00,83.67
3903.00,83.74
3902.00,83.72
3901.00,83.66
3900.00,83.62
3899.00,83.61
3898.00,83.60
3897.00,83.59
3896.00,83.58
3895.00,83.57
3894.00,83.56
3893.00,83.53
3892.00,83.52
3891.00,83.57
3890.00,83.63
3889.00,83.66
3888.00,83.64
3887.00,83.63
3886.00,83.65
3885.00,83.67
3884.00,83.63
3883.00,83.54
3882.00,83.49
3881.00,83.52
3880.00,83.59
3879.00,83.64
3878.00,83.64
3877.00,83.59
3876.00,83.55
3875.00,83.55
3874.00,83.61
3873.00,83.65
3872.00,83.62
3871.00,83.60
3870.00,83.65
3869.00,83.71
3868.00,83.68
3867.00,83.60
3866.00,83.59
3865.00,83.64
3864.00,83.66
3863.00,83.63
3862.00,83.63
3861.00,83.66
3860.00,83.66
3859.00,83.61
3858.00,83.54
3857.00,83.52
3856.00,83.53
3855.00,83.55
3854.00,83.57
3853.00,83.58
3852.00,83.58
3851.00,83.56
3850.00,83.59
3849.00,83.65
3848.00,83.68
3847.00,83.66
3846.00,83.63
3845.00,83.61
3844.00,83.62
3843.00,83.63
3842.00,83.64
3841.00,83.61
3840.00,83.58
3839.00,83.58
3838.00,83.58
3837.00,83.58
3836.00,83.58
3835.00,83.61
3834.00,83.63
3833.00,83.65
3832.00,83.66
3831.00,83.68
3830.00,83.68
3829.00,83.65
3828.00,83.61
3827.00,83.61
3826.00,83.67
3825.00,83.72
3824.00,83.70
3823.00,83.66
3822.00,83.65
3821.00,83.69
3820.00,83.73
3819.00,83.68
3818.00,83.60
3817.00,83.58
3816.00,83.62
3815.00,83.64
3814.00,83.60
3813.00,83.56
3812.00,83.58
3811.00,83.66
3810.00,83.68
3809.00,83.65
3808.00,83.63
3807.00,83.68
3806.00,83.74
3805.00,83.72
3804.00,83.65
3803.00,83.60
3802.00,83.63
3801.00,83.66
3800.00,83.64
3799.00,83.59
3798.00,83.59
3797.00,83.64
3796.00,83.68
3795.00,83.67
3794.00,83.62
3793.00,83.59
3792.00,83.59
3791.00,83.60
3790.00,83.59
3789.00,83.58
3788.00,83.58
3787.00,83.58
3786.00,83.58
3785.00,83.58
3784.00,83.61
3783.00,83.63
3782.00,83.61
3781.00,83.58
3780.00,83.58
3779.00,83.61
3778.00,83.63
3777.00,83.61
3776.00,83.59
3775.00,83.61
3774.00,83.64
3773.00,83.64
3772.00,83.62
3771.00,83.63
3770.00,83.67
3769.00,83.69
3768.00,83.66
3767.00,83.63
3766.00,83.65
3765.00,83.68
3764.00,83.69
3763.00,83.68
3762.00,83.65
3761.00,83.65
3760.00,83.67
3759.00,83.69
3758.00,83.69
3757.00,83.71
3756.00,83.71
3755.00,83.71
3754.00,83.74
3753.00,83.82
3752.00,83.89
3751.00,83.91
3750.00,83.91
3749.00,83.92
3748.00,83.88
3747.00,83.76
3746.00,83.67
3745.00,83.67
3744.00,83.73
3743.00,83.74
3742.00,83.73
3741.00,83.79
3740.00,83.91
3739.00,83.99
3738.00,83.96
3737.00,83.90
3736.00,83.88
3735.00,83.86
3734.00,83.82
3733.00,83.80
3732.00,83.81
3731.00,83.80
3730.00,83.77
3729.00,83.74
3728.00,83.73
3727.00,83.74
3726.00,83.73
3725.00,83.70
3724.00,83.67
3723.00,83.65
3722.00,83.66
3721.00,83.67
3720.00,83.67
3719.00,83.65
3718.00,83.66
3717.00,83.69
3716.00,83.71
3715.00,83.72
3714.00,83.76
3713.00,83.80
3712.00,83.80
3711.00,83.77
3710.00,83.74
3709.00,83.74
3708.00,83.73
3707.00,83.72
3706.00,83.71
3705.00,83.69
3704.00,83.66
3703.00,83.63
3702.00,83.63
3701.00,83.65
3700.00,83.66
3699.00,83.65
3698.00,83.64
3697.00,83.66
3696.00,83.68
3695.00,83.67
3694.00,83.66
3693.00,83.67
3692.00,83.68
3691.00,83.67
3690.00,83.69
3689.00,83.72
3688.00,83.72
3687.00,83.70
3686.00,83.67
3685.00,83.67
3684.00,83.71
3683.00,83.73
3682.00,83.71
3681.00,83.68
3680.00,83.71
3679.00,83.79
3678.00,83.84
3677.00,83.84
3676.00,83.85
3675.00,83.87
3674.00,83.85
3673.00,83.79
3672.00,83.76
3671.00,83.77
3670.00,83.76
3669.00,83.73
3668.00,83.69
3667.00,83.67
3666.00,83.67
3665.00,83.68
3664.00,83.68
3663.00,83.66
3662.00,83.63
3661.00,83.64
3660.00,83.67
3659.00,83.70
3658.00,83.69
3657.00,83.70
3656.00,83.73
3655.00,83.76
3654.00,83.74
3653.00,83.74
3652.00,83.80
3651.00,83.89
3650.00,83.92
3649.00,83.86
3648.00,83.80
3647.00,83.77
3646.00,83.75
3645.00,83.73
3644.00,83.70
3643.00,83.68
3642.00,83.66
3641.00,83.64
3640.00,83.63
3639.00,83.64
3638.00,83.66
3637.00,83.67
3636.00,83.67
3635.00,83.67
3634.00,83.70
3633.00,83.75
3632.00,83.79
3631.00,83.81
3630.00,83.83
3629.00,83.85
3628.00,83.83
3627.00,83.77
3626.00,83.72
3625.00,83.72
3624.00,83.73
3623.00,83.72
3622.00,83.67
3621.00,83.64
3620.00,83.63
3619.00,83.65
3618.00,83.68
3617.00,83.71
3616.00,83.71
3615.00,83.71
3614.00,83.73
3613.00,83.77
3612.00,83.80
3611.00,83.80
3610.00,83.79
3609.00,83.77
3608.00,83.73
3607.00,83.69
3606.00,83.65
3605.00,83.64
3604.00,83.64
3603.00,83.63
3602.00,83.62
3601.00,83.64
3600.00,83.65
3599.00,83.65
3598.00,83.64
3597.00,83.64
3596.00,83.64
3595.00,83.63
3594.00,83.63
3593.00,83.66
3592.00,83.69
3591.00,83.70
3590.00,83.71
3589.00,83.70
3588.00,83.69
3587.00,83.68
3586.00,83.66
3585.00,83.65
3584.00,83.63
3583.00,83.61
3582.00,83.60
3581.00,83.59
3580.00,83.58
3579.00,83.56
3578.00,83.56
3577.00,83.58
3576.00,83.59
3575.00,83.59
3574.00,83.59
3573.00,83.60
3572.00,83.62
3571.00,83.63
3570.00,83.65
3569.00,83.67
3568.00,83.68
3567.00,83.68
3566.00,83.65
3565.00,83.63
3564.00,83.60
3563.00,83.59
3562.00,83.57
3561.00,83.57
3560.00,83.56
3559.00,83.55
3558.00,83.54
3557.00,83.55
3556.00,83.55
3555.00,83.55
3554.00,83.54
3553.00,83.55
3552.00,83.56
3551.00,83.58
3550.00,83.58
3549.00,83.59
3548.00,83.59
3547.00,83.59
3546.00,83.58
3545.00,83.58
3544.00,83.57
3543.00,83.57
3542.00,83.56
3541.00,83.56
3540.00,83.55
3539.00,83.54
3538.00,83.53
3537.00,83.54
3536.00,83.54
3535.00,83.54
3534.00,83.54
3533.00,83.54
3532.00,83.55
3531.00,83.55
3530.00,83.55
3529.00,83.56
3528.00,83.58
3527.00,83.59
3526.00,83.59
3525.00,83.58
3524.00,83.56
3523.00,83.55
3522.00,83.55
3521.00,83.55
3520.00,83.55
3519.00,83.54
3518.00,83.54
3517.00,83.54
3516.00,83.54
3515.00,83.54
3514.00,83.54
3513.00,83.54
3512.00,83.54
3511.00,83.54
3510.00,83.54
3509.00,83.55
3508.00,83.56
3507.00,83.56
3506.00,83.55
3505.00,83.55
3504.00,83.55
3503.00,83.55
3502.00,83.55
3501.00,83.55
3500.00,83.54
3499.00,83.53
3498.00,83.53
3497.00,83.53
3496.00,83.53
3495.00,83.53
3494.00,83.52
3493.00,83.52
3492.00,83.53
3491.00,83.53
3490.00,83.53
3489.00,83.53
3488.00,83.53
3487.00,83.52
3486.00,83.52
3485.00,83.52
3484.00,83.52
3483.00,83.52
3482.00,83.53
3481.00,83.54
3480.00,83.54
3479.00,83.53
3478.00,83.52
3477.00,83.52
3476.00,83.52
3475.00,83.51
3474.00,83.51
3473.00,83.52
3472.00,83.52
3471.00,83.52
3470.00,83.52
3469.00,83.52
3468.00,83.53
3467.00,83.53
3466.00,83.53
3465.00,83.52
3464.00,83.52
3463.00,83.51
3462.00,83.51
3461.00,83.52
3460.00,83.52
3459.00,83.51
3458.00,83.50
3457.00,83.51
3456.00,83.51
3455.00,83.52
3454.00,83.52
3453.00,83.52
3452.00,83.52
3451.00,83.52
3450.00,83.51
3449.00,83.51
3448.00,83.51
3447.00,83.51
3446.00,83.52
3445.00,83.52
3444.00,83.51
3443.00,83.51
3442.00,83.51
3441.00,83.51
3440.00,83.51
3439.00,83.51
3438.00,83.50
3437.00,83.50
3436.00,83.51
3435.00,83.51
3434.00,83.51
3433.00,83.51
3432.00,83.51
3431.00,83.51
3430.00,83.51
3429.00,83.51
3428.00,83.51
3427.00,83.51
3426.00,83.51
3425.00,83.51
3424.00,83.51
3423.00,83.51
3422.00,83.50
3421.00,83.50
3420.00,83.50
3419.00,83.50
3418.00,83.49
3417.00,83.49
3416.00,83.49
3415.00,83.50
3414.00,83.50
3413.00,83.50
3412.00,83.51
3411.00,83.51
3410.00,83.51
3409.00,83.52
3408.00,83.52
3407.00,83.51
3406.00,83.51
3405.00,83.51
3404.00,83.51
3403.00,83.51
3402.00,83.51
3401.00,83.52
3400.00,83.52
3399.00,83.52
3398.00,83.52
3397.00,83.52
3396.00,83.52
3395.00,83.52
3394.00,83.52
3393.00,83.52
3392.00,83.52
3391.00,83.52
3390.00,83.52
3389.00,83.52
3388.00,83.52
3387.00,83.51
3386.00,83.51
3385.00,83.52
3384.00,83.52
3383.00,83.51
3382.00,83.51
3381.00,83.51
3380.00,83.51
3379.00,83.51
3378.00,83.52
3377.00,83.52
3376.00,83.52
3375.00,83.51
3374.00,83.51
3373.00,83.52
3372.00,83.52
3371.00,83.53
3370.00,83.53
3369.00,83.54
3368.00,83.54
3367.00,83.53
3366.00,83.53
3365.00,83.53
3364.00,83.54
3363.00,83.54
3362.00,83.53
3361.00,83.53
3360.00,83.53
3359.00,83.53
3358.00,83.52
3357.00,83.52
3356.00,83.53
3355.00,83.53
3354.00,83.53
3353.00,83.54
3352.00,83.55
3351.00,83.55
3350.00,83.55
3349.00,83.55
3348.00,83.54
3347.00,83.54
3346.00,83.54
3345.00,83.54
3344.00,83.54
3343.00,83.54
3342.00,83.55
3341.00,83.55
3340.00,83.55
3339.00,83.54
3338.00,83.53
3337.00,83.54
3336.00,83.54
3335.00,83.54
3334.00,83.54
3333.00,83.55
3332.00,83.55
3331.00,83.55
3330.00,83.55
3329.00,83.55
3328.00,83.55
3327.00,83.55
3326.00,83.56
3325.00,83.56
3324.00,83.56
3323.00,83.56
3322.00,83.56
3321.00,83.55
3320.00,83.56
3319.00,83.56
3318.00,83.56
3317.00,83.56
3316.00,83.56
3315.00,83.56
3314.00,83.56
3313.00,83.57
3312.00,83.57
3311.00,83.57
3310.00,83.58
3309.00,83.58
3308.00,83.58
3307.00,83.58
3306.00,83.58
3305.00,83.58
3304.00,83.58
3303.00,83.58
3302.00,83.58
3301.00,83.58
3300.00,83.58
3299.00,83.58
3298.00,83.58
3297.00,83.59
3296.00,83.59
3295.00,83.59
3294.00,83.59
3293.00,83.59
3292.00,83.59
3291.00,83.59
3290.00,83.59
3289.00,83.58
3288.00,83.58
3287.00,83.58
3286.00,83.59
3285.00,83.59
3284.00,83.59
3283.00,83.59
3282.00,83.59
3281.00,83.60
3280.00,83.60
3279.00,83.60
3278.00,83.61
3277.00,83.61
3276.00,83.62
3275.00,83.61
3274.00,83.61
3273.00,83.61
3272.00,83.61
3271.00,83.61
3270.00,83.62
3269.00,83.62
3268.00,83.61
3267.00,83.61
3266.00,83.61
3265.00,83.61
3264.00,83.61
3263.00,83.62
3262.00,83.62
3261.00,83.62
3260.00,83.62
3259.00,83.62
3258.00,83.62
3257.00,83.62
3256.00,83.62
3255.00,83.62
3254.00,83.63
3253.00,83.63
3252.00,83.63
3251.00,83.63
3250.00,83.63
3249.00,83.63
3248.00,83.64
3247.00,83.64
3246.00,83.64
3245.00,83.64
3244.00,83.64
3243.00,83.64
3242.00,83.64
3241.00,83.65
3240.00,83.65
3239.00,83.64
3238.00,83.65
3237.00,83.65
3236.00,83.65
3235.00,83.65
3234.00,83.65
3233.00,83.65
3232.00,83.65
3231.00,83.64
3230.00,83.64
3229.00,83.65
3228.00,83.65
3227.00,83.65
3226.00,83.65
3225.00,83.66
3224.00,83.66
3223.00,83.66
3222.00,83.66
3221.00,83.66
3220.00,83.67
3219.00,83.67
3218.00,83.67
3217.00,83.67
3216.00,83.67
3215.00,83.67
3214.00,83.68
3213.00,83.68
3212.00,83.68
3211.00,83.68
3210.00,83.68
3209.00,83.68
3208.00,83.68
3207.00,83.68
3206.00,83.68
3205.00,83.68
3204.00,83.68
3203.00,83.68
3202.00,83.68
3201.00,83.69
3200.00,83.69
3199.00,83.70
3198.00,83.70
3197.00,83.70
3196.00,83.70
3195.00,83.69
3194.00,83.69
3193.00,83.69
3192.00,83.69
3191.00,83.69
3190.00,83.69
3189.00,83.69
3188.00,83.69
3187.00,83.69
3186.00,83.70
3185.00,83.71
3184.00,83.71
3183.00,83.71
3182.00,83.71
3181.00,83.71
3180.00,83.71
3179.00,83.71
3178.00,83.71
3177.00,83.72
3176.00,83.72
3175.00,83.72
3174.00,83.72
3173.00,83.72
3172.00,83.73
3171.00,83.73
3170.00,83.73
3169.00,83.74
3168.00,83.74
3167.00,83.74
3166.00,83.74
3165.00,83.74
3164.00,83.73
3163.00,83.73
3162.00,83.73
3161.00,83.73
3160.00,83.73
3159.00,83.73
3158.00,83.74
3157.00,83.74
3156.00,83.74
3155.00,83.75
3154.00,83.75
3153.00,83.76
3152.00,83.76
3151.00,83.76
3150.00,83.75
3149.00,83.75
3148.00,83.75
3147.00,83.76
3146.00,83.76
3145.00,83.76
3144.00,83.76
3143.00,83.76
3142.00,83.76
3141.00,83.77
3140.00,83.77
3139.00,83.77
3138.00,83.77
3137.00,83.77
3136.00,83.77
3135.00,83.77
3134.00,83.77
3133.00,83.77
3132.00,83.77
3131.00,83.77
3130.00,83.77
3129.00,83.77
3128.00,83.78
3127.00,83.78
3126.00,83.78
3125.00,83.79
3124.00,83.79
3123.00,83.79
3122.00,83.80
3121.00,83.80
3120.00,83.80
3119.00,83.80
3118.00,83.80
3117.00,83.80
3116.00,83.80
3115.00,83.80
3114.00,83.80
3113.00,83.80
3112.00,83.80
3111.00,83.80
3110.00,83.80
3109.00,83.81
3108.00,83.81
3107.00,83.81
3106.00,83.82
3105.00,83.82
3104.00,83.82
3103.00,83.81
3102.00,83.82
3101.00,83.82
3100.00,83.82
3099.00,83.83
3098.00,83.83
3097.00,83.83
3096.00,83.83
3095.00,83.83
3094.00,83.82
3093.00,83.82
3092.00,83.81
3091.00,83.81
3090.00,83.81
3089.00,83.82
3088.00,83.82
3087.00,83.83
3086.00,83.83
3085.00,83.83
3084.00,83.84
3083.00,83.84
3082.00,83.84
3081.00,83.84
3080.00,83.84
3079.00,83.84
3078.00,83.84
3077.00,83.84
3076.00,83.84
3075.00,83.83
3074.00,83.83
3073.00,83.83
3072.00,83.84
3071.00,83.84
3070.00,83.84
3069.00,83.85
3068.00,83.86
3067.00,83.86
3066.00,83.85
3065.00,83.85
3064.00,83.85
3063.00,83.85
3062.00,83.85
3061.00,83.85
3060.00,83.86
3059.00,83.86
3058.00,83.86
3057.00,83.86
3056.00,83.85
3055.00,83.85
3054.00,83.85
3053.00,83.86
3052.00,83.86
3051.00,83.85
3050.00,83.86
3049.00,83.86
3048.00,83.86
3047.00,83.86
3046.00,83.86
3045.00,83.86
3044.00,83.86
3043.00,83.86
3042.00,83.85
3041.00,83.86
3040.00,83.86
3039.00,83.86
3038.00,83.86
3037.00,83.87
3036.00,83.87
3035.00,83.87
3034.00,83.87
3033.00,83.87
3032.00,83.87
3031.00,83.87
3030.00,83.87
3029.00,83.87
3028.00,83.87
3027.00,83.87
3026.00,83.87
3025.00,83.87
3024.00,83.87
3023.00,83.87
3022.00,83.87
3021.00,83.88
3020.00,83.89
3019.00,83.90
3018.00,83.90
3017.00,83.91
3016.00,83.90
3015.00,83.90
3014.00,83.89
3013.00,83.89
3012.00,83.89
3011.00,83.88
3010.00,83.88
3009.00,83.89
3008.00,83.88
3007.00,83.88
3006.00,83.88
3005.00,83.87
3004.00,83.87
3003.00,83.87
3002.00,83.87
3001.00,83.87
3000.00,83.87
2999.00,83.87
2998.00,83.88
2997.00,83.88
2996.00,83.88
2995.00,83.88
2994.00,83.87
2993.00,83.87
2992.00,83.87
2991.00,83.87
2990.00,83.87
2989.00,83.87
2988.00,83.87
2987.00,83.86
2986.00,83.86
2985.00,83.86
2984.00,83.86
2983.00,83.86
2982.00,83.85
2981.00,83.84
2980.00,83.84
2979.00,83.83
2978.00,83.82
2977.00,83.81
2976.00,83.80
2975.00,83.79
2974.00,83.78
2973.00,83.76
2972.00,83.75
2971.00,83.73
2970.00,83.70
2969.00,83.68
2968.00,83.66
2967.00,83.64
2966.00,83.62
2965.00,83.60
2964.00,83.58
2963.00,83.56
2962.00,83.55
2961.00,83.54
2960.00,83.53
2959.00,83.53
2958.00,83.54
2957.00,83.54
2956.00,83.55
2955.00,83.56
2954.00,83.57
2953.00,83.59
2952.00,83.60
2951.00,83.61
2950.00,83.62
2949.00,83.63
2948.00,83.63
2947.00,83.62
2946.00,83.61
2945.00,83.60
2944.00,83.59
2943.00,83.57
2942.00,83.55
2941.00,83.53
2940.00,83.51
2939.00,83.48
2938.00,83.45
2937.00,83.42
2936.00,83.38
2935.00,83.34
2934.00,83.29
2933.00,83.25
2932.00,83.20
2931.00,83.14
2930.00,83.08
2929.00,83.01
2928.00,82.93
2927.00,82.84
2926.00,82.75
2925.00,82.66
2924.00,82.56
2923.00,82.46
2922.00,82.35
2921.00,82.25
2920.00,82.17
2919.00,82.11
2918.00,82.10
2917.00,82.14
2916.00,82.24
2915.00,82.39
2914.00,82.58
2913.00,82.76
2912.00,82.91
2911.00,83.04
2910.00,83.14
2909.00,83.21
2908.00,83.27
2907.00,83.31
2906.00,83.35
2905.00,83.39
2904.00,83.42
2903.00,83.44
2902.00,83.46
2901.00,83.49
2900.00,83.51
2899.00,83.52
2898.00,83.54
2897.00,83.56
2896.00,83.57
2895.00,83.58
2894.00,83.60
2893.00,83.61
2892.00,83.62
2891.00,83.64
2890.00,83.65
2889.00,83.67
2888.00,83.68
2887.00,83.69
2886.00,83.71
2885.00,83.72
2884.00,83.72
2883.00,83.73
2882.00,83.74
2881.00,83.74
2880.00,83.75
2879.00,83.75
2878.00,83.76
2877.00,83.76
2876.00,83.76
2875.00,83.75
2874.00,83.75
2873.00,83.75
2872.00,83.75
2871.00,83.75
2870.00,83.75
2869.00,83.74
2868.00,83.73
2867.00,83.72
2866.00,83.71
2865.00,83.69
2864.00,83.67
2863.00,83.65
2862.00,83.62
2861.00,83.59
2860.00,83.55
2859.00,83.50
2858.00,83.45
2857.00,83.39
2856.00,83.32
2855.00,83.23
2854.00,83.12
2853.00,83.01
2852.00,82.89
2851.00,82.81
2850.00,82.79
2849.00,82.85
2848.00,82.98
2847.00,83.14
2846.00,83.31
2845.00,83.46
2844.00,83.57
2843.00,83.65
2842.00,83.72
2841.00,83.76
2840.00,83.80
2839.00,83.83
2838.00,83.86
2837.00,83.88
2836.00,83.89
2835.00,83.90
2834.00,83.92
2833.00,83.93
2832.00,83.93
2831.00,83.94
2830.00,83.95
2829.00,83.95
2828.00,83.96
2827.00,83.96
2826.00,83.96
2825.00,83.97
2824.00,83.98
2823.00,83.98
2822.00,83.98
2821.00,83.99
2820.00,83.99
2819.00,83.99
2818.00,83.99
2817.00,83.99
2816.00,84.00
2815.00,84.00
2814.00,84.00
2813.00,84.01
2812.00,84.01
2811.00,84.01
2810.00,84.02
2809.00,84.02
2808.00,84.02
2807.00,84.02
2806.00,84.02
2805.00,84.03
2804.00,84.03
2803.00,84.03
2802.00,84.04
2801.00,84.04
2800.00,84.03
2799.00,84.03
2798.00,84.04
2797.00,84.04
2796.00,84.04
2795.00,84.04
2794.00,84.04
2793.00,84.04
2792.00,84.05
2791.00,84.05
2790.00,84.05
2789.00,84.05
2788.00,84.05
2787.00,84.05
2786.00,84.05
2785.00,84.05
2784.00,84.06
2783.00,84.06
2782.00,84.06
2781.00,84.07
2780.00,84.07
2779.00,84.07
2778.00,84.07
2777.00,84.07
2776.00,84.07
2775.00,84.07
2774.00,84.07
2773.00,84.07
2772.00,84.07
2771.00,84.07
2770.00,84.07
2769.00,84.07
2768.00,84.07
2767.00,84.07
2766.00,84.08
2765.00,84.08
2764.00,84.08
2763.00,84.08
2762.00,84.08
2761.00,84.08
2760.00,84.08
2759.00,84.09
2758.00,84.09
2757.00,84.09
2756.00,84.08
2755.00,84.08
2754.00,84.09
2753.00,84.09
2752.00,84.09
2751.00,84.10
2750.00,84.10
2749.00,84.10
2748.00,84.10
2747.00,84.10
2746.00,84.10
2745.00,84.10
2744.00,84.10
2743.00,84.10
2742.00,84.11
2741.00,84.11
2740.00,84.11
2739.00,84.11
2738.00,84.11
2737.00,84.11
2736.00,84.11
2735.00,84.11
2734.00,84.11
2733.00,84.11
2732.00,84.11
2731.00,84.11
2730.00,84.11
2729.00,84.11
2728.00,84.11
2727.00,84.11
2726.00,84.11
2725.00,84.11
2724.00,84.11
2723.00,84.11
2722.00,84.12
2721.00,84.12
2720.00,84.12
2719.00,84.12
2718.00,84.12
2717.00,84.12
2716.00,84.12
2715.00,84.12
2714.00,84.13
2713.00,84.13
2712.00,84.13
2711.00,84.13
2710.00,84.13
2709.00,84.13
2708.00,84.13
2707.00,84.13
2706.00,84.13
2705.00,84.13
2704.00,84.13
2703.00,84.13
2702.00,84.13
2701.00,84.13
2700.00,84.13
2699.00,84.13
2698.00,84.13
2697.00,84.14
2696.00,84.14
2695.00,84.14
2694.00,84.14
2693.00,84.14
2692.00,84.14
2691.00,84.14
2690.00,84.14
2689.00,84.15
2688.00,84.15
2687.00,84.15
2686.00,84.15
2685.00,84.15
2684.00,84.15
2683.00,84.15
2682.00,84.15
2681.00,84.16
2680.00,84.16
2679.00,84.16
2678.00,84.16
2677.00,84.16
2676.00,84.16
2675.00,84.15
2674.00,84.15
2673.00,84.16
2672.00,84.15
2671.00,84.15
2670.00,84.16
2669.00,84.16
2668.00,84.16
2667.00,84.16
2666.00,84.16
2665.00,84.16
2664.00,84.16
2663.00,84.16
2662.00,84.17
2661.00,84.17
2660.00,84.17
2659.00,84.16
2658.00,84.16
2657.00,84.16
2656.00,84.16
2655.00,84.16
2654.00,84.17
2653.00,84.17
2652.00,84.17
2651.00,84.17
2650.00,84.18
2649.00,84.18
2648.00,84.18
2647.00,84.18
2646.00,84.18
2645.00,84.18
2644.00,84.18
2643.00,84.18
2642.00,84.18
2641.00,84.18
2640.00,84.18
2639.00,84.19
2638.00,84.19
2637.00,84.20
2636.00,84.20
2635.00,84.20
2634.00,84.20
2633.00,84.20
2632.00,84.19
2631.00,84.19
2630.00,84.19
2629.00,84.20
2628.00,84.20
2627.00,84.20
2626.00,84.20
2625.00,84.20
2624.00,84.20
2623.00,84.20
2622.00,84.20
2621.00,84.20
2620.00,84.21
2619.00,84.21
2618.00,84.21
2617.00,84.21
2616.00,84.21
2615.00,84.21
2614.00,84.21
2613.00,84.21
2612.00,84.21
2611.00,84.21
2610.00,84.21
2609.00,84.22
2608.00,84.22
2607.00,84.22
2606.00,84.22
2605.00,84.22
2604.00,84.22
2603.00,84.22
2602.00,84.22
2601.00,84.22
2600.00,84.22
2599.00,84.22
2598.00,84.23
2597.00,84.23
2596.00,84.23
2595.00,84.23
2594.00,84.23
2593.00,84.23
2592.00,84.23
2591.00,84.22
2590.00,84.23
2589.00,84.23
2588.00,84.23
2587.00,84.23
2586.00,84.23
2585.00,84.23
2584.00,84.23
2583.00,84.23
2582.00,84.23
2581.00,84.24
2580.00,84.24
2579.00,84.24
2578.00,84.24
2577.00,84.24
2576.00,84.24
2575.00,84.24
2574.00,84.24
2573.00,84.25
2572.00,84.25
2571.00,84.25
2570.00,84.25
2569.00,84.25
2568.00,84.25
2567.00,84.25
2566.00,84.25
2565.00,84.25
2564.00,84.25
2563.00,84.25
2562.00,84.26
2561.00,84.26
2560.00,84.26
2559.00,84.26
2558.00,84.26
2557.00,84.26
2556.00,84.26
2555.00,84.26
2554.00,84.26
2553.00,84.26
2552.00,84.26
2551.00,84.26
2550.00,84.27
2549.00,84.27
2548.00,84.27
2547.00,84.27
2546.00,84.27
2545.00,84.27
2544.00,84.27
2543.00,84.27
2542.00,84.28
2541.00,84.28
2540.00,84.28
2539.00,84.28
2538.00,84.28
2537.00,84.28
2536.00,84.28
2535.00,84.28
2534.00,84.28
2533.00,84.28
2532.00,84.27
2531.00,84.27
2530.00,84.27
2529.00,84.27
2528.00,84.27
2527.00,84.27
2526.00,84.28
2525.00,84.28
2524.00,84.28
2523.00,84.29
2522.00,84.29
2521.00,84.28
2520.00,84.28
2519.00,84.28
2518.00,84.29
2517.00,84.29
2516.00,84.30
2515.00,84.29
2514.00,84.29
2513.00,84.29
2512.00,84.29
2511.00,84.30
2510.00,84.30
2509.00,84.30
2508.00,84.30
2507.00,84.30
2506.00,84.30
2505.00,84.30
2504.00,84.29
2503.00,84.30
2502.00,84.30
2501.00,84.30
2500.00,84.31
2499.00,84.30
2498.00,84.30
2497.00,84.30
2496.00,84.30
2495.00,84.30
2494.00,84.31
2493.00,84.31
2492.00,84.31
2491.00,84.31
2490.00,84.31
2489.00,84.31
2488.00,84.31
2487.00,84.32
2486.00,84.32
2485.00,84.32
2484.00,84.32
2483.00,84.32
2482.00,84.32
2481.00,84.33
2480.00,84.33
2479.00,84.33
2478.00,84.33
2477.00,84.33
2476.00,84.33
2475.00,84.33
2474.00,84.33
2473.00,84.33
2472.00,84.33
2471.00,84.33
2470.00,84.33
2469.00,84.33
2468.00,84.33
2467.00,84.33
2466.00,84.33
2465.00,84.33
2464.00,84.33
2463.00,84.34
2462.00,84.34
2461.00,84.35
2460.00,84.34
2459.00,84.34
2458.00,84.34
2457.00,84.34
2456.00,84.34
2455.00,84.34
2454.00,84.34
2453.00,84.35
2452.00,84.34
2451.00,84.34
2450.00,84.34
2449.00,84.34
2448.00,84.34
2447.00,84.34
2446.00,84.35
2445.00,84.35
2444.00,84.35
2443.00,84.35
2442.00,84.36
2441.00,84.36
2440.00,84.36
2439.00,84.36
2438.00,84.36
2437.00,84.36
2436.00,84.36
2435.00,84.36
2434.00,84.36
2433.00,84.37
2432.00,84.37
2431.00,84.37
2430.00,84.37
2429.00,84.37
2428.00,84.37
2427.00,84.37
2426.00,84.37
2425.00,84.38
2424.00,84.38
2423.00,84.37
2422.00,84.37
2421.00,84.37
2420.00,84.37
2419.00,84.37
2418.00,84.37
2417.00,84.37
2416.00,84.37
2415.00,84.38
2414.00,84.38
2413.00,84.38
2412.00,84.39
2411.00,84.39
2410.00,84.39
2409.00,84.39
2408.00,84.38
2407.00,84.38
2406.00,84.39
2405.00,84.39
2404.00,84.39
2403.00,84.39
2402.00,84.39
2401.00,84.39
2400.00,84.39
2399.00,84.39
2398.00,84.39
2397.00,84.39
2396.00,84.39
2395.00,84.39
2394.00,84.40
2393.00,84.40
2392.00,84.40
2391.00,84.40
2390.00,84.40
2389.00,84.40
2388.00,84.41
2387.00,84.41
2386.00,84.42
2385.00,84.43
2384.00,84.43
2383.00,84.44
2382.00,84.45
2381.00,84.45
2380.00,84.45
2379.00,84.44
2378.00,84.43
2377.00,84.42
2376.00,84.40
2375.00,84.39
2374.00,84.40
2373.00,84.41
2372.00,84.42
2371.00,84.43
2370.00,84.44
2369.00,84.45
2368.00,84.45
2367.00,84.44
2366.00,84.44
2365.00,84.44
2364.00,84.43
2363.00,84.43
2362.00,84.44
2361.00,84.47
2360.00,84.48
2359.00,84.49
2358.00,84.50
2357.00,84.49
2356.00,84.47
2355.00,84.45
2354.00,84.44
2353.00,84.43
2352.00,84.44
2351.00,84.46
2350.00,84.48
2349.00,84.48
2348.00,84.48
2347.00,84.48
2346.00,84.48
2345.00,84.49
2344.00,84.50
2343.00,84.51
2342.00,84.52
2341.00,84.52
2340.00,84.51
2339.00,84.50
2338.00,84.49
2337.00,84.48
2336.00,84.47
2335.00,84.47
2334.00,84.47
2333.00,84.47
2332.00,84.48
2331.00,84.50
2330.00,84.50
2329.00,84.51
2328.00,84.51
2327.00,84.52
2326.00,84.53
2325.00,84.54
2324.00,84.54
2323.00,84.54
2322.00,84.54
2321.00,84.52
2320.00,84.52
2319.00,84.51
2318.00,84.51
2317.00,84.51
2316.00,84.50
2315.00,84.51
2314.00,84.51
2313.00,84.51
2312.00,84.52
2311.00,84.52
2310.00,84.52
2309.00,84.52
2308.00,84.52
2307.00,84.52
2306.00,84.53
2305.00,84.53
2304.00,84.53
2303.00,84.52
2302.00,84.52
2301.00,84.52
2300.00,84.51
2299.00,84.51
2298.00,84.51
2297.00,84.51
2296.00,84.51
2295.00,84.51
2294.00,84.51
2293.00,84.51
2292.00,84.51
2291.00,84.51
2290.00,84.52
2289.00,84.52
2288.00,84.52
2287.00,84.52
2286.00,84.52
2285.00,84.51
2284.00,84.51
2283.00,84.51
2282.00,84.51
2281.00,84.51
2280.00,84.51
2279.00,84.51
2278.00,84.52
2277.00,84.52
2276.00,84.52
2275.00,84.52
2274.00,84.52
2273.00,84.53
2272.00,84.53
2271.00,84.53
2270.00,84.53
2269.00,84.53
2268.00,84.53
2267.00,84.53
2266.00,84.53
2265.00,84.53
2264.00,84.53
2263.00,84.53
2262.00,84.53
2261.00,84.53
2260.00,84.54
2259.00,84.54
2258.00,84.54
2257.00,84.54
2256.00,84.54
2255.00,84.54
2254.00,84.55
2253.00,84.55
2252.00,84.55
2251.00,84.55
2250.00,84.55
2249.00,84.55
2248.00,84.55
2247.00,84.55
2246.00,84.55
2245.00,84.55
2244.00,84.55
2243.00,84.56
2242.00,84.56
2241.00,84.56
2240.00,84.55
2239.00,84.56
2238.00,84.56
2237.00,84.57
2236.00,84.57
2235.00,84.57
2234.00,84.57
2233.00,84.57
2232.00,84.56
2231.00,84.56
2230.00,84.57
2229.00,84.57
2228.00,84.57
2227.00,84.57
2226.00,84.57
2225.00,84.57
2224.00,84.57
2223.00,84.57
2222.00,84.57
2221.00,84.58
2220.00,84.58
2219.00,84.58
2218.00,84.59
2217.00,84.59
2216.00,84.59
2215.00,84.59
2214.00,84.59
2213.00,84.59
2212.00,84.59
2211.00,84.59
2210.00,84.59
2209.00,84.59
2208.00,84.59
2207.00,84.59
2206.00,84.60
2205.00,84.60
2204.00,84.60
2203.00,84.60
2202.00,84.60
2201.00,84.60
2200.00,84.60
2199.00,84.60
2198.00,84.61
2197.00,84.61
2196.00,84.60
2195.00,84.60
2194.00,84.60
2193.00,84.60
2192.00,84.60
2191.00,84.60
2190.00,84.60
2189.00,84.60
2188.00,84.60
2187.00,84.60
2186.00,84.61
2185.00,84.61
2184.00,84.61
2183.00,84.62
2182.00,84.62
2181.00,84.62
2180.00,84.62
2179.00,84.62
2178.00,84.62
2177.00,84.63
2176.00,84.62
2175.00,84.62
2174.00,84.62
2173.00,84.62
2172.00,84.62
2171.00,84.62
2170.00,84.63
2169.00,84.63
2168.00,84.63
2167.00,84.63
2166.00,84.63
2165.00,84.63
2164.00,84.63
2163.00,84.63
2162.00,84.63
2161.00,84.63
2160.00,84.63
2159.00,84.64
2158.00,84.64
2157.00,84.64
2156.00,84.64
2155.00,84.65
2154.00,84.65
2153.00,84.65
2152.00,84.65
2151.00,84.65
2150.00,84.66
2149.00,84.65
2148.00,84.65
2147.00,84.65
2146.00,84.65
2145.00,84.65
2144.00,84.65
2143.00,84.65
2142.00,84.65
2141.00,84.66
2140.00,84.65
2139.00,84.66
2138.00,84.66
2137.00,84.67
2136.00,84.67
2135.00,84.67
2134.00,84.67
2133.00,84.67
2132.00,84.67
2131.00,84.67
2130.00,84.68
2129.00,84.68
2128.00,84.68
2127.00,84.68
2126.00,84.68
2125.00,84.68
2124.00,84.68
2123.00,84.68
2122.00,84.69
2121.00,84.69
2120.00,84.68
2119.00,84.68
2118.00,84.69
2117.00,84.69
2116.00,84.68
2115.00,84.68
2114.00,84.69
2113.00,84.69
2112.00,84.69
2111.00,84.69
2110.00,84.69
2109.00,84.70
2108.00,84.69
2107.00,84.70
2106.00,84.70
2105.00,84.70
2104.00,84.70
2103.00,84.70
2102.00,84.70
2101.00,84.70
2100.00,84.70
2099.00,84.71
2098.00,84.71
2097.00,84.70
2096.00,84.70
2095.00,84.70
2094.00,84.71
2093.00,84.71
2092.00,84.71
2091.00,84.71
2090.00,84.72
2089.00,84.72
2088.00,84.71
2087.00,84.72
2086.00,84.72
2085.00,84.73
2084.00,84.73
2083.00,84.73
2082.00,84.74
2081.00,84.74
2080.00,84.73
2079.00,84.73
2078.00,84.73
2077.00,84.73
2076.00,84.73
2075.00,84.73
2074.00,84.74
2073.00,84.74
2072.00,84.74
2071.00,84.75
2070.00,84.75
2069.00,84.75
2068.00,84.75
2067.00,84.75
2066.00,84.75
2065.00,84.76
2064.00,84.75
2063.00,84.76
2062.00,84.76
2061.00,84.76
2060.00,84.76
2059.00,84.76
2058.00,84.76
2057.00,84.76
2056.00,84.76
2055.00,84.76
2054.00,84.77
2053.00,84.77
2052.00,84.77
2051.00,84.77
2050.00,84.78
2049.00,84.78
2048.00,84.78
2047.00,84.78
2046.00,84.78
2045.00,84.78
2044.00,84.78
2043.00,84.78
2042.00,84.78
2041.00,84.79
2040.00,84.79
2039.00,84.79
2038.00,84.79
2037.00,84.79
2036.00,84.79
2035.00,84.79
2034.00,84.79
2033.00,84.79
2032.00,84.79
2031.00,84.79
2030.00,84.80
2029.00,84.80
2028.00,84.80
2027.00,84.80
2026.00,84.81
2025.00,84.81
2024.00,84.81
2023.00,84.81
2022.00,84.82
2021.00,84.82
2020.00,84.81
2019.00,84.81
2018.00,84.82
2017.00,84.82
2016.00,84.82
2015.00,84.83
2014.00,84.83
2013.00,84.83
2012.00,84.83
2011.00,84.83
2010.00,84.84
2009.00,84.84
2008.00,84.83
2007.00,84.83
2006.00,84.84
2005.00,84.84
2004.00,84.83
2003.00,84.84
2002.00,84.84
2001.00,84.84
2000.00,84.84
1999.00,84.84
1998.00,84.85
1997.00,84.85
1996.00,84.85
1995.00,84.84
1994.00,84.84
1993.00,84.83
1992.00,84.84
1991.00,84.85
1990.00,84.86
1989.00,84.86
1988.00,84.86
1987.00,84.87
1986.00,84.87
1985.00,84.87
1984.00,84.87
1983.00,84.87
1982.00,84.87
1981.00,84.87
1980.00,84.87
1979.00,84.87
1978.00,84.87
1977.00,84.87
1976.00,84.88
1975.00,84.88
1974.00,84.88
1973.00,84.88
1972.00,84.88
1971.00,84.89
1970.00,84.88
1969.00,84.88
1968.00,84.88
1967.00,84.89
1966.00,84.90
1965.00,84.90
1964.00,84.91
1963.00,84.90
1962.00,84.90
1961.00,84.89
1960.00,84.89
1959.00,84.90
1958.00,84.90
1957.00,84.90
1956.00,84.91
1955.00,84.91
1954.00,84.91
1953.00,84.90
1952.00,84.90
1951.00,84.90
1950.00,84.90
1949.00,84.91
1948.00,84.91
1947.00,84.91
1946.00,84.91
1945.00,84.89
1944.00,84.88
1943.00,84.88
1942.00,84.90
1941.00,84.92
1940.00,84.93
1939.00,84.94
1938.00,84.93
1937.00,84.93
1936.00,84.93
1935.00,84.93
1934.00,84.94
1933.00,84.93
1932.00,84.93
1931.00,84.94
1930.00,84.94
1929.00,84.94
1928.00,84.94
1927.00,84.95
1926.00,84.95
1925.00,84.94
1924.00,84.93
1923.00,84.94
1922.00,84.96
1921.00,84.96
1920.00,84.93
1919.00,84.93
1918.00,84.94
1917.00,84.95
1916.00,84.96
1915.00,84.98
1914.00,84.99
1913.00,84.97
1912.00,84.96
1911.00,84.96
1910.00,84.97
1909.00,84.97
1908.00,84.96
1907.00,84.98
1906.00,84.99
1905.00,84.98
1904.00,84.97
1903.00,84.98
1902.00,84.99
1901.00,84.98
1900.00,84.96
1899.00,84.97
1898.00,84.98
1897.00,84.97
1896.00,84.96
1895.00,84.98
1894.00,85.00
1893.00,84.99
1892.00,84.96
1891.00,84.95
1890.00,84.96
1889.00,84.96
1888.00,84.97
1887.00,85.00
1886.00,85.02
1885.00,85.01
1884.00,84.99
1883.00,85.01
1882.00,85.03
1881.00,85.02
1880.00,85.00
1879.00,85.01
1878.00,85.03
1877.00,85.03
1876.00,85.02
1875.00,85.03
1874.00,85.05
1873.00,85.04
1872.00,85.00
1871.00,84.97
1870.00,84.96
1869.00,84.95
1868.00,84.96
1867.00,85.00
1866.00,85.05
1865.00,85.05
1864.00,85.03
1863.00,85.04
1862.00,85.06
1861.00,85.05
1860.00,85.03
1859.00,85.03
1858.00,85.05
1857.00,85.04
1856.00,85.02
1855.00,85.02
1854.00,85.04
1853.00,85.04
1852.00,85.04
1851.00,85.05
1850.00,85.06
1849.00,85.05
1848.00,85.04
1847.00,85.02
1846.00,85.00
1845.00,84.98
1844.00,84.99
1843.00,85.04
1842.00,85.08
1841.00,85.10
1840.00,85.09
1839.00,85.08
1838.00,85.08
1837.00,85.07
1836.00,85.07
1835.00,85.07
1834.00,85.07
1833.00,85.04
1832.00,85.00
1831.00,84.96
1830.00,84.97
1829.00,85.01
1828.00,85.04
1827.00,85.07
1826.00,85.08
1825.00,85.08
1824.00,85.08
1823.00,85.09
1822.00,85.10
1821.00,85.10
1820.00,85.08
1819.00,85.07
1818.00,85.09
1817.00,85.09
1816.00,85.07
1815.00,85.07
1814.00,85.10
1813.00,85.10
1812.00,85.08
1811.00,85.08
1810.00,85.11
1809.00,85.12
1808.00,85.10
1807.00,85.11
1806.00,85.13
1805.00,85.13
1804.00,85.10
1803.00,85.09
1802.00,85.12
1801.00,85.14
1800.00,85.12
1799.00,85.14
1798.00,85.17
1797.00,85.17
1796.00,85.15
1795.00,85.17
1794.00,85.20
1793.00,85.20
1792.00,85.17
1791.00,85.16
1790.00,85.18
1789.00,85.19
1788.00,85.17
1787.00,85.17
1786.00,85.19
1785.00,85.18
1784.00,85.15
1783.00,85.14
1782.00,85.15
1781.00,85.17
1780.00,85.18
1779.00,85.18
1778.00,85.18
1777.00,85.18
1776.00,85.18
1775.00,85.18
1774.00,85.18
1773.00,85.20
1772.00,85.20
1771.00,85.17
1770.00,85.18
1769.00,85.21
1768.00,85.21
1767.00,85.18
1766.00,85.18
1765.00,85.19
1764.00,85.17
1763.00,85.13
1762.00,85.13
1761.00,85.16
1760.00,85.17
1759.00,85.15
1758.00,85.15
1757.00,85.18
1756.00,85.21
1755.00,85.22
1754.00,85.26
1753.00,85.33
1752.00,85.38
1751.00,85.34
1750.00,85.27
1749.00,85.24
1748.00,85.24
1747.00,85.21
1746.00,85.19
1745.00,85.19
1744.00,85.19
1743.00,85.17
1742.00,85.17
1741.00,85.19
1740.00,85.20
1739.00,85.19
1738.00,85.21
1737.00,85.26
1736.00,85.34
1735.00,85.41
1734.00,85.42
1733.00,85.36
1732.00,85.28
1731.00,85.23
1730.00,85.20
1729.00,85.18
1728.00,85.17
1727.00,85.16
1726.00,85.16
1725.00,85.16
1724.00,85.14
1723.00,85.16
1722.00,85.20
1721.00,85.18
1720.00,85.13
1719.00,85.14
1718.00,85.23
1717.00,85.26
1716.00,85.20
1715.00,85.22
1714.00,85.28
1713.00,85.26
1712.00,85.19
1711.00,85.18
1710.00,85.22
1709.00,85.21
1708.00,85.15
1707.00,85.14
1706.00,85.19
1705.00,85.19
1704.00,85.17
1703.00,85.22
1702.00,85.31
1701.00,85.33
1700.00,85.28
1699.00,85.26
1698.00,85.24
1697.00,85.18
1696.00,85.08
1695.00,85.08
1694.00,85.15
1693.00,85.20
1692.00,85.20
1691.00,85.19
1690.00,85.19
1689.00,85.21
1688.00,85.20
1687.00,85.13
1686.00,85.03
1685.00,84.98
1684.00,85.01
1683.00,85.08
1682.00,85.11
1681.00,85.13
1680.00,85.17
1679.00,85.18
1678.00,85.14
1677.00,85.14
1676.00,85.17
1675.00,85.16
1674.00,85.11
1673.00,85.10
1672.00,85.13
1671.00,85.14
1670.00,85.10
1669.00,85.08
1668.00,85.09
1667.00,85.09
1666.00,85.05
1665.00,85.02
1664.00,85.03
1663.00,85.05
1662.00,85.03
1661.00,85.03
1660.00,85.07
1659.00,85.08
1658.00,85.03
1657.00,85.00
1656.00,84.99
1655.00,84.96
1654.00,84.94
1653.00,84.95
1652.00,84.95
1651.00,84.95
1650.00,84.98
1649.00,85.01
1648.00,85.04
1647.00,85.06
1646.00,85.07
1645.00,85.06
1644.00,85.03
1643.00,85.03
1642.00,85.03
1641.00,85.03
1640.00,85.02
1639.00,85.00
1638.00,85.00
1637.00,85.02
1636.00,85.02
1635.00,84.99
1634.00,84.96
1633.00,84.95
1632.00,84.96
1631.00,84.98
1630.00,84.97
1629.00,84.94
1628.00,84.93
1627.00,84.93
1626.00,84.92
1625.00,84.91
1624.00,84.92
1623.00,84.93
1622.00,84.91
1621.00,84.89
1620.00,84.91
1619.00,84.92
1618.00,84.91
1617.00,84.89
1616.00,84.90
1615.00,84.89
1614.00,84.86
1613.00,84.84
1612.00,84.86
1611.00,84.88
1610.00,84.85
1609.00,84.82
1608.00,84.84
1607.00,84.85
1606.00,84.81
1605.00,84.79
1604.00,84.82
1603.00,84.82
1602.00,84.78
1601.00,84.76
1600.00,84.77
1599.00,84.77
1598.00,84.73
1597.00,84.72
1596.00,84.73
1595.00,84.73
1594.00,84.70
1593.00,84.67
1592.00,84.68
1591.00,84.68
1590.00,84.64
1589.00,84.61
1588.00,84.60
1587.00,84.59
1586.00,84.54
1585.00,84.49
1584.00,84.49
1583.00,84.47
1582.00,84.39
1581.00,84.33
1580.00,84.32
1579.00,84.30
1578.00,84.26
1577.00,84.26
1576.00,84.33
1575.00,84.36
1574.00,84.34
1573.00,84.35
1572.00,84.38
1571.00,84.39
1570.00,84.36
1569.00,84.38
1568.00,84.47
1567.00,84.50
1566.00,84.46
1565.00,84.45
1564.00,84.49
1563.00,84.47
1562.00,84.39
1561.00,84.35
1560.00,84.42
1559.00,84.46
1558.00,84.42
1557.00,84.42
1556.00,84.48
1555.00,84.51
1554.00,84.49
1553.00,84.47
1552.00,84.46
1551.00,84.42
1550.00,84.37
1549.00,84.36
1548.00,84.38
1547.00,84.37
1546.00,84.31
1545.00,84.25
1544.00,84.22
1543.00,84.23
1542.00,84.26
1541.00,84.29
1540.00,84.31
1539.00,84.31
1538.00,84.31
1537.00,84.31
1536.00,84.35
1535.00,84.38
1534.00,84.42
1533.00,84.46
1532.00,84.51
1531.00,84.56
1530.00,84.60
1529.00,84.60
1528.00,84.61
1527.00,84.64
1526.00,84.69
1525.00,84.71
1524.00,84.72
1523.00,84.72
1522.00,84.72
1521.00,84.70
1520.00,84.67
1519.00,84.66
1518.00,84.66
1517.00,84.68
1516.00,84.67
1515.00,84.68
1514.00,84.71
1513.00,84.73
1512.00,84.70
1511.00,84.67
1510.00,84.70
1509.00,84.77
1508.00,84.82
1507.00,84.83
1506.00,84.82
1505.00,84.78
1504.00,84.70
1503.00,84.64
1502.00,84.61
1501.00,84.59
1500.00,84.55
1499.00,84.52
1498.00,84.58
1497.00,84.64
1496.00,84.62
1495.00,84.58
1494.00,84.58
1493.00,84.57
1492.00,84.53
1491.00,84.51
1490.00,84.52
1489.00,84.50
1488.00,84.43
1487.00,84.41
1486.00,84.42
1485.00,84.39
1484.00,84.36
1483.00,84.35
1482.00,84.35
1481.00,84.33
1480.00,84.31
1479.00,84.30
1478.00,84.30
1477.00,84.26
1476.00,84.23
1475.00,84.26
1474.00,84.29
1473.00,84.28
1472.00,84.20
1471.00,84.13
1470.00,84.09
1469.00,84.05
1468.00,83.99
1467.00,83.97
1466.00,83.97
1465.00,84.00
1464.00,84.00
1463.00,84.00
1462.00,84.01
1461.00,84.03
1460.00,84.02
1459.00,84.01
1458.00,84.07
1457.00,84.15
1456.00,84.17
1455.00,84.11
1454.00,84.06
1453.00,84.05
1452.00,84.03
1451.00,83.99
1450.00,83.98
1449.00,83.98
1448.00,83.96
1447.00,83.91
1446.00,83.88
1445.00,83.91
1444.00,83.91
1443.00,83.86
1442.00,83.84
1441.00,83.87
1440.00,83.88
1439.00,83.83
1438.00,83.81
1437.00,83.85
1436.00,83.85
1435.00,83.80
1434.00,83.77
1433.00,83.78
1432.00,83.77
1431.00,83.70
1430.00,83.67
1429.00,83.69
1428.00,83.71
1427.00,83.68
1426.00,83.65
1425.00,83.68
1424.00,83.70
1423.00,83.64
1422.00,83.57
1421.00,83.56
1420.00,83.54
1419.00,83.49
1418.00,83.49
1417.00,83.54
1416.00,83.55
1415.00,83.48
1414.00,83.42
1413.00,83.43
1412.00,83.44
1411.00,83.39
1410.00,83.36
1409.00,83.37
1408.00,83.37
1407.00,83.33
1406.00,83.30
1405.00,83.32
1404.00,83.35
1403.00,83.33
1402.00,83.30
1401.00,83.30
1400.00,83.31
1399.00,83.29
1398.00,83.27
1397.00,83.25
1396.00,83.24
1395.00,83.19
1394.00,83.15
1393.00,83.16
1392.00,83.18
1391.00,83.15
1390.00,83.10
1389.00,83.07
1388.00,83.07
1387.00,83.05
1386.00,83.03
1385.00,83.02
1384.00,83.02
1383.00,82.99
1382.00,82.95
1381.00,82.93
1380.00,82.92
1379.00,82.89
1378.00,82.86
1377.00,82.84
1376.00,82.83
1375.00,82.80
1374.00,82.77
1373.00,82.74
1372.00,82.74
1371.00,82.72
1370.00,82.68
1369.00,82.65
1368.00,82.63
1367.00,82.60
1366.00,82.55
1365.00,82.51
1364.00,82.48
1363.00,82.44
1362.00,82.42
1361.00,82.40
1360.00,82.39
1359.00,82.37
1358.00,82.33
1357.00,82.30
1356.00,82.27
1355.00,82.23
1354.00,82.19
1353.00,82.16
1352.00,82.13
1351.00,82.09
1350.00,82.05
1349.00,82.02
1348.00,82.00
1347.00,81.98
1346.00,81.94
1345.00,81.91
1344.00,81.88
1343.00,81.84
1342.00,81.80
1341.00,81.77
1340.00,81.74
1339.00,81.70
1338.00,81.65
1337.00,81.60
1336.00,81.56
1335.00,81.52
1334.00,81.47
1333.00,81.44
1332.00,81.41
1331.00,81.36
1330.00,81.31
1329.00,81.27
1328.00,81.23
1327.00,81.19
1326.00,81.14
1325.00,81.10
1324.00,81.06
1323.00,81.01
1322.00,80.96
1321.00,80.91
1320.00,80.87
1319.00,80.82
1318.00,80.77
1317.00,80.72
1316.00,80.68
1315.00,80.63
1314.00,80.58
1313.00,80.53
1312.00,80.49
1311.00,80.44
1310.00,80.38
1309.00,80.33
1308.00,80.29
1307.00,80.24
1306.00,80.18
1305.00,80.12
1304.00,80.07
1303.00,80.01
1302.00,79.94
1301.00,79.89
1300.00,79.84
1299.00,79.79
1298.00,79.73
1297.00,79.67
1296.00,79.62
1295.00,79.55
1294.00,79.48
1293.00,79.42
1292.00,79.37
1291.00,79.31
1290.00,79.25
1289.00,79.19
1288.00,79.13
1287.00,79.06
1286.00,78.98
1285.00,78.92
1284.00,78.86
1283.00,78.79
1282.00,78.71
1281.00,78.64
1280.00,78.57
1279.00,78.49
1278.00,78.42
1277.00,78.35
1276.00,78.28
1275.00,78.19
1274.00,78.11
1273.00,78.03
1272.00,77.95
1271.00,77.86
1270.00,77.77
1269.00,77.68
1268.00,77.59
1267.00,77.47
1266.00,77.35
1265.00,77.23
1264.00,77.12
1263.00,77.00
1262.00,76.89
1261.00,76.79
1260.00,76.72
1259.00,76.66
1258.00,76.60
1257.00,76.55
1256.00,76.50
1255.00,76.45
1254.00,76.38
1253.00,76.31
1252.00,76.25
1251.00,76.16
1250.00,76.07
1249.00,75.98
1248.00,75.89
1247.00,75.80
1246.00,75.71
1245.00,75.62
1244.00,75.53
1243.00,75.43
1242.00,75.33
1241.00,75.23
1240.00,75.13
1239.00,75.02
1238.00,74.90
1237.00,74.80
1236.00,74.70
1235.00,74.59
1234.00,74.48
1233.00,74.37
1232.00,74.27
1231.00,74.16
1230.00,74.05
1229.00,73.94
1228.00,73.83
1227.00,73.71
1226.00,73.59
1225.00,73.47
1224.00,73.36
1223.00,73.24
1222.00,73.11
1221.00,72.99
1220.00,72.88
1219.00,72.76
1218.00,72.63
1217.00,72.51
1216.00,72.40
1215.00,72.27
1214.00,72.13
1213.00,72.01
1212.00,71.89
1211.00,71.75
1210.00,71.62
1209.00,71.48
1208.00,71.35
1207.00,71.21
1206.00,71.06
1205.00,70.92
1204.00,70.78
1203.00,70.64
1202.00,70.49
1201.00,70.35
1200.00,70.22
1199.00,70.07
1198.00,69.92
1197.00,69.78
1196.00,69.63
1195.00,69.48
1194.00,69.32
1193.00,69.17
1192.00,69.02
1191.00,68.86
1190.00,68.71
1189.00,68.56
1188.00,68.41
1187.00,68.25
1186.00,68.08
1185.00,67.92
1184.00,67.76
1183.00,67.59
1182.00,67.42
1181.00,67.25
1180.00,67.08
1179.00,66.91
1178.00,66.73
1177.00,66.56
1176.00,66.38
1175.00,66.20
1174.00,66.01
1173.00,65.82
1172.00,65.64
1171.00,65.44
1170.00,65.25
1169.00,65.06
1168.00,64.87
1167.00,64.67
1166.00,64.47
1165.00,64.27
1164.00,64.08
1163.00,63.89
1162.00,63.68
1161.00,63.48
1160.00,63.27
1159.00,63.06
1158.00,62.84
1157.00,62.63
1156.00,62.41
1155.00,62.20
1154.00,61.98
1153.00,61.78
1152.00,61.57
1151.00,61.35
1150.00,61.13
1149.00,60.90
1148.00,60.68
1147.00,60.46
1146.00,60.23
1145.00,60.01
1144.00,59.78
1143.00,59.54
1142.00,59.31
1141.00,59.07
1140.00,58.84
1139.00,58.60
1138.00,58.36
1137.00,58.11
1136.00,57.87
1135.00,57.63
1134.00,57.39
1133.00,57.14
1132.00,56.90
1131.00,56.64
1130.00,56.38
1129.00,56.13
1128.00,55.87
1127.00,55.61
1126.00,55.34
1125.00,55.08
1124.00,54.81
1123.00,54.55
1122.00,54.28
1121.00,54.00
1120.00,53.73
1119.00,53.45
1118.00,53.17
1117.00,52.90
1116.00,52.62
1115.00,52.34
1114.00,52.06
1113.00,51.78
1112.00,51.49
1111.00,51.21
1110.00,50.93
1109.00,50.65
1108.00,50.36
1107.00,50.06
1106.00,49.77
1105.00,49.47
1104.00,49.18
1103.00,48.89
1102.00,48.60
1101.00,48.31
1100.00,48.02
1099.00,47.73
1098.00,47.44
1097.00,47.14
1096.00,46.84
1095.00,46.54
1094.00,46.25
1093.00,45.95
1092.00,45.65
1091.00,45.35
1090.00,45.04
1089.00,44.74
1088.00,44.43
1087.00,44.12
1086.00,43.82
1085.00,43.52
1084.00,43.21
1083.00,42.91
1082.00,42.60
1081.00,42.29
1080.00,41.98
1079.00,41.66
1078.00,41.35
1077.00,41.02
1076.00,40.70
1075.00,40.39
1074.00,40.08
1073.00,39.76
1072.00,39.44
1071.00,39.12
1070.00,38.79
1069.00,38.46
1068.00,38.13
1067.00,37.80
1066.00,37.48
1065.00,37.15
1064.00,36.81
1063.00,36.48
1062.00,36.14
1061.00,35.80
1060.00,35.47
1059.00,35.13
1058.00,34.80
1057.00,34.47
1056.00,34.14
1055.00,33.81
1054.00,33.48
1053.00,33.13
1052.00,32.79
1051.00,32.45
1050.00,32.11
1049.00,31.77
1048.00,31.43
1047.00,31.09
1046.00,30.77
1045.00,30.43
1044.00,30.09
1043.00,29.76
1042.00,29.42
1041.00,29.08
1040.00,28.75
1039.00,28.41
1038.00,28.08
1037.00,27.75
1036.00,27.41
1035.00,27.08
1034.00,26.75
1033.00,26.42
1032.00,26.08
1031.00,25.75
1030.00,25.42
1029.00,25.09
1028.00,24.75
1027.00,24.43
1026.00,24.10
1025.00,23.77
1024.00,23.43
1023.00,23.10
1022.00,22.79
1021.00,22.46
1020.00,22.14
1019.00,21.83
1018.00,21.52
1017.00,21.20
1016.00,20.87
1015.00,20.56
1014.00,20.26
1013.00,19.95
1012.00,19.65
1011.00,19.35
1010.00,19.06
1009.00,18.76
1008.00,18.45
1007.00,18.15
1006.00,17.85
1005.00,17.56
1004.00,17.26
1003.00,16.97
1002.00,16.69
1001.00,16.40
1000.00,16.10
999.00,15.82
998.00,15.54
997.00,15.25
996.00,14.95
995.00,14.67
994.00,14.40
993.00,14.12
992.00,13.85
991.00,13.58
990.00,13.32
989.00,13.05
988.00,12.78
987.00,12.52
986.00,12.26
985.00,11.99
984.00,11.73
983.00,11.48
982.00,11.24
981.00,11.00
980.00,10.75
979.00,10.51
978.00,10.28
977.00,10.03
976.00,9.78
975.00,9.55
974.00,9.32
973.00,9.09
972.00,8.86
971.00,8.65
970.00,8.44
969.00,8.23
968.00,8.02
967.00,7.81
966.00,7.61
965.00,7.41
964.00,7.21
963.00,7.02
962.00,6.83
961.00,6.63
960.00,6.43
959.00,6.25
958.00,6.08
957.00,5.90
956.00,5.72
955.00,5.55
954.00,5.38
953.00,5.21
952.00,5.04
951.00,4.88
950.00,4.74
949.00,4.58
948.00,4.41
947.00,4.27
946.00,4.13
945.00,3.98
944.00,3.84
943.00,3.71
942.00,3.59
941.00,3.45
940.00,3.32
939.00,3.20
938.00,3.09
937.00,2.97
936.00,2.85
935.00,2.74
934.00,2.64
933.00,2.52
932.00,2.41
931.00,2.32
930.00,2.24
929.00,2.15
928.00,2.05
927.00,1.97
926.00,1.89
925.00,1.80
924.00,1.71
923.00,1.65
922.00,1.59
921.00,1.51
920.00,1.43
919.00,1.37
918.00,1.31
917.00,1.25
916.00,1.18
915.00,1.13
914.00,1.09
913.00,1.04
912.00,0.99
911.00,0.94
910.00,0.90
909.00,0.85
908.00,0.80
907.00,0.76
906.00,0.73
905.00,0.70
904.00,0.66
903.00,0.62
902.00,0.59
901.00,0.54
900.00,0.50
899.00,0.48
898.00,0.47
897.00,0.44
896.00,0.41
895.00,0.40
894.00,0.39
893.00,0.36
892.00,0.33
891.00,0.31
890.00,0.30
889.00,0.28
888.00,0.26
887.00,0.25
886.00,0.25
885.00,0.23
884.00,0.21
883.00,0.20
882.00,0.20
881.00,0.18
880.00,0.16
879.00,0.15
878.00,0.15
877.00,0.13
876.00,0.12
875.00,0.12
874.00,0.12
873.00,0.11
872.00,0.10
871.00,0.10
870.00,0.10
869.00,0.09
868.00,0.07
867.00,0.07
866.00,0.07
865.00,0.06
864.00,0.05
863.00,0.05
862.00,0.06
861.00,0.06
860.00,0.05
859.00,0.03
858.00,0.03
857.00,0.02
856.00,0.02
855.00,0.03
854.00,0.04
853.00,0.04
852.00,0.03
851.00,0.03
850.00,0.03
849.00,0.02
848.00,0.01
847.00,0.01
846.00,0.02
845.00,0.02
844.00,0.02
843.00,0.02
842.00,0.03
841.00,0.02
840.00,0.01
839.00,0.02
838.00,0.03
837.00,0.03
836.00,0.04
835.00,0.03
834.00,0.02
833.00,0.03
832.00,0.04
831.00,0.03
830.00,0.01
829.00,0.01
828.00,0.02
827.00,0.02
826.00,0.02
825.00,0.03
824.00,0.04
823.00,0.02
822.00,0.00
821.00,0.01
820.00,0.02
819.00,0.02
818.00,0.02
817.00,0.02
816.00,0.02
815.00,0.02
814.00,0.01
813.00,0.01
812.00,0.02
811.00,0.01
810.00,0.01
809.00,0.00
808.00,0.00
807.00,0.01
806.00,0.03
805.00,0.02
804.00,0.01
803.00,0.01
802.00,0.02
801.00,0.02
800.00,0.01
799.00,0.02
798.00,0.03
797.00,0.01
796.00,0.01
795.00,0.01
794.00,0.02
793.00,0.01
792.00,0.01
791.00,0.01
790.00,0.00
789.00,0.01
788.00,0.02
787.00,0.01
786.00,0.01
785.00,0.02
784.00,0.03
783.00,0.02
782.00,0.02
781.00,0.03
780.00,0.04
779.00,0.03
778.00,0.02
777.00,0.02
776.00,0.02
775.00,0.02
774.00,0.03
773.00,0.02
772.00,0.00
771.00,0.01
770.00,0.02
769.00,0.01
768.00,0.01
767.00,0.02
766.00,0.04
765.00,0.02
764.00,0.00
763.00,0.00
762.00,0.01
761.00,0.01
760.00,0.02
759.00,0.02
758.00,0.01
757.00,0.02
756.00,0.02
755.00,0.01
754.00,0.01
753.00,0.01
752.00,0.02
751.00,0.01
750.00,0.00
749.00,0.01
748.00,0.01
747.00,0.03
746.00,0.05
745.00,0.04
744.00,0.02
743.00,0.01
742.00,0.02
741.00,0.01
740.00,0.00
739.00,0.02
738.00,0.02
737.00,0.01
736.00,0.01
735.00,0.01
734.00,0.02
733.00,0.02
732.00,0.00
731.00,0.01
730.00,0.02
729.00,0.03
728.00,0.04
727.00,0.02
726.00,0.01
725.00,0.01
724.00,0.03
723.00,0.03
722.00,0.02
721.00,0.03
720.00,0.03
719.00,0.01
718.00,0.01
717.00,0.01
716.00,0.00
715.00,0.02
714.00,0.03
713.00,0.02
712.00,0.01
711.00,0.02
710.00,0.03
709.00,0.01
708.00,0.02
707.00,0.02
706.00,0.01
705.00,0.02
704.00,0.02
703.00,0.01
702.00,0.02
701.00,0.02
700.00,0.03
699.00,0.02
698.00,0.01
697.00,0.02
696.00,0.03
695.00,0.01
694.00,0.02
693.00,0.02
692.00,0.02
691.00,0.03
690.00,0.03
689.00,0.02
688.00,0.02
687.00,0.01
686.00,0.01
685.00,0.01
684.00,0.00
683.00,0.02
682.00,0.02
681.00,0.01
680.00,0.02
679.00,0.01
678.00,0.02
677.00,0.03
676.00,0.03
675.00,0.02
674.00,0.01
673.00,0.02
672.00,0.03
671.00,0.04
670.00,0.05
669.00,0.04
668.00,0.02
667.00,0.02
666.00,0.02
665.00,0.01
664.00,0.03
663.00,0.03
662.00,0.03
661.00,0.03
660.00,0.03
659.00,0.04
658.00,0.05
657.00,0.04
656.00,0.03
655.00,0.03
654.00,0.03
653.00,0.04
652.00,0.06
651.00,0.06
650.00,0.05
649.00,0.03
648.00,0.03
647.00,0.02
646.00,0.01
645.00,0.01
644.00,0.02
643.00,0.02
642.00,0.03
641.00,0.04
640.00,0.05
639.00,0.03
638.00,0.01
637.00,0.02
636.00,0.03
635.00,0.03
634.00,0.04
633.00,0.03
632.00,0.01
631.00,0.03
630.00,0.05
629.00,0.03
628.00,0.00
627.00,0.01
626.00,0.02
625.00,0.02
624.00,0.03
623.00,0.01
622.00,0.01
621.00,0.01
620.00,0.02
619.00,0.01
618.00,0.02
617.00,0.02
616.00,0.04
615.00,0.03
614.00,0.01
613.00,0.03
612.00,0.06
611.00,0.05
610.00,0.03
609.00,0.04
608.00,0.06
607.00,0.05
606.00,0.04
605.00,0.04
604.00,0.05
603.00,0.03
602.00,0.04
601.00,0.03
600.00,0.02
599.00,0.04
598.00,0.05
597.00,0.03
596.00,0.02
595.00,0.04
594.00,0.04
593.00,0.03
592.00,0.02
591.00,0.06
590.00,0.09
589.00,0.06
588.00,0.03
587.00,0.05
586.00,0.09
585.00,0.09
584.00,0.06
583.00,0.06
582.00,0.08
581.00,0.05
580.00,0.02
579.00,0.05
578.00,0.07
577.00,0.02
576.00,0.04
575.00,0.04
574.00,0.03
573.00,0.04
572.00,0.07
571.00,0.06
570.00,0.06
569.00,0.07
568.00,0.09
567.00,0.07
566.00,0.05
565.00,0.05
564.00,0.06
563.00,0.04
562.00,0.05
561.00,0.01
560.00,0.05
559.00,0.06
558.00,0.08
557.00,0.07
556.00,0.04
555.00,0.02
554.00,0.04
553.00,0.02
552.00,0.02
551.00,0.03
550.00,0.09
549.00,0.07
548.00,0.05
547.00,0.06
546.00,0.06
545.00,0.06
544.00,0.07
543.00,0.07
542.00,0.07
541.00,0.05
540.00,0.05
539.00,0.11
538.00,0.15
537.00,0.10
536.00,0.03
535.00,0.02
534.00,0.05
533.00,0.03
532.00,0.04
531.00,0.07
530.00,0.11
529.00,0.08
528.00,0.02
527.00,0.06
526.00,0.10
525.00,0.06
524.00,0.03
523.00,0.01
522.00,0.02
521.00,0.05
520.00,0.10
519.00,0.08
518.00,0.03
517.00,0.06
516.00,0.10
515.00,0.07
514.00,0.03
513.00,0.04
512.00,0.07
511.00,0.09
510.00,0.15
509.00,0.13
508.00,0.08
507.00,0.12
506.00,0.15
505.00,0.09
504.00,0.07
503.00,0.10
502.00,0.12
501.00,0.07
500.00,0.03
499.00,0.07
498.00,0.11
497.00,0.08
496.00,0.06
495.00,0.07
494.00,0.09
493.00,0.06
492.00,0.07
491.00,0.03
490.00,0.06
489.00,0.07
488.00,0.05
487.00,0.09
486.00,0.12
485.00,0.04
484.00,0.01
483.00,0.06
482.00,0.15
481.00,0.15
480.00,0.12
479.00,0.17
478.00,0.23
477.00,0.15
476.00,0.02
475.00,0.01
474.00,0.06
473.00,0.08
472.00,0.10
471.00,0.12
470.00,0.13
469.00,0.05
468.00,0.10
467.00,0.14
466.00,0.17
465.00,0.18
464.00,0.20
463.00,0.16
462.00,0.10
461.00,0.03
460.00,0.04
459.00,0.09
458.00,0.20
457.00,0.15
456.00,0.08
455.00,0.15
454.00,0.20
453.00,0.14
452.00,0.14
451.00,0.15
450.00,0.20
