Created as New Dataset,Sample 006 By Administrator Date Monday, October 13 2025
cm-1,%T
4000.00,99.95
3999.00,100.00
3998.00,100.02
3997.00,100.03
3996.00,100.05
3995.00,100.08
3994.00,100.11
3993.00,100.14
3992.00,100.17
3991.00,100.22
3990.00,100.27
3989.00,100.32
3988.00,100.35
3987.00,100.37
3986.00,100.41
3985.00,100.48
3984.00,100.57
3983.00,100.65
3982.00,100.69
3981.00,100.70
3980.00,100.70
3979.00,100.69
3978.00,100.69
3977.00,100.70
3976.00,100.73
3975.00,100.79
3974.00,100.88
3973.00,101.00
3972.00,101.09
3971.00,101.15
3970.00,101.17
3969.00,101.18
3968.00,101.21
3967.00,101.27
3966.00,101.33
3965.00,101.39
3964.00,101.44
3963.00,101.46
3962.00,101.46
3961.00,101.44
3960.00,101.42
3959.00,101.44
3958.00,101.50
3957.00,101.59
3956.00,101.66
3955.00,101.72
3954.00,101.75
3953.00,101.77
3952.00,101.76
3951.00,101.75
3950.00,101.75
3949.00,101.78
3948.00,101.85
3947.00,101.94
3946.00,102.03
3945.00,102.09
3944.00,102.11
3943.00,102.12
3942.00,102.16
3941.00,102.23
3940.00,102.30
3939.00,102.34
3938.00,102.36
3937.00,102.36
3936.00,102.40
3935.00,102.45
3934.00,102.50
3933.00,102.55
3932.00,102.60
3931.00,102.64
3930.00,102.69
3929.00,102.73
3928.00,102.74
3927.00,102.73
3926.00,102.71
3925.00,102.72
3924.00,102.75
3923.00,102.81
3922.00,102.89
3921.00,102.98
3920.00,103.06
3919.00,103.11
3918.00,103.16
3917.00,103.20
3916.00,103.27
3915.00,103.34
3914.00,103.40
3913.00,103.43
3912.00,103.41
3911.00,103.38
3910.00,103.37
3909.00,103.39
3908.00,103.44
3907.00,103.52
3906.00,103.63
3905.00,103.74
3904.00,103.82
3903.00,103.87
3902.00,103.88
3901.00,103.88
3900.00,103.88
3899.00,103.89
3898.00,103.90
3897.00,103.93
3896.00,103.97
3895.00,104.04
3894.00,104.14
3893.00,104.24
3892.00,104.32
3891.00,104.34
3890.00,104.34
3889.00,104.33
3888.00,104.34
3887.00,104.38
3886.00,104.45
3885.00,104.54
3884.00,104.63
3883.00,104.67
3882.00,104.68
3881.00,104.68
3880.00,104.70
3879.00,104.76
3878.00,104.84
3877.00,104.92
3876.00,104.98
3875.00,105.03
3874.00,105.06
3873.00,105.11
3872.00,105.17
3871.00,105.22
3870.00,105.24
3869.00,105.23
3868.00,105.22
3867.00,105.24
3866.00,105.27
3865.00,105.29
3864.00,105.30
3863.00,105.33
3862.00,105.38
3861.00,105.44
3860.00,105.52
3859.00,105.61
3858.00,105.71
3857.00,105.79
3856.00,105.84
3855.00,105.89
3854.00,105.94
3853.00,105.98
3852.00,105.99
3851.00,105.99
3850.00,105.97
3849.00,105.95
3848.00,105.95
3847.00,105.97
3846.00,106.01
3845.00,106.06
3844.00,106.10
3843.00,106.14
3842.00,106.19
3841.00,106.25
3840.00,106.33
3839.00,106.40
3838.00,106.43
3837.00,106.46
3836.00,106.50
3835.00,106.53
3834.00,106.56
3833.00,106.58
3832.00,106.63
3831.00,106.72
3830.00,106.82
3829.00,106.94
3828.00,107.03
3827.00,107.09
3826.00,107.10
3825.00,107.09
3824.00,107.08
3823.00,107.11
3822.00,107.16
3821.00,107.21
3820.00,107.27
3819.00,107.36
3818.00,107.47
3817.00,107.56
3816.00,107.60
3815.00,107.62
3814.00,107.64
3813.00,107.68
3812.00,107.71
3811.00,107.72
3810.00,107.73
3809.00,107.77
3808.00,107.83
3807.00,107.89
3806.00,107.96
3805.00,108.03
3804.00,108.11
3803.00,108.20
3802.00,108.26
3801.00,108.27
3800.00,108.25
3799.00,108.25
3798.00,108.29
3797.00,108.37
3796.00,108.45
3795.00,108.53
3794.00,108.59
3793.00,108.63
3792.00,108.67
3791.00,108.70
3790.00,108.73
3789.00,108.75
3788.00,108.77
3787.00,108.79
3786.00,108.82
3785.00,108.87
3784.00,108.94
3783.00,109.02
3782.00,109.10
3781.00,109.18
3780.00,109.26
3779.00,109.33
3778.00,109.39
3777.00,109.43
3776.00,109.45
3775.00,109.46
3774.00,109.47
3773.00,109.51
3772.00,109.57
3771.00,109.63
3770.00,109.69
3769.00,109.74
3768.00,109.81
3767.00,109.88
3766.00,109.93
3765.00,109.96
3764.00,109.98
3763.00,110.02
3762.00,110.10
3761.00,110.21
3760.00,110.29
3759.00,110.33
3758.00,110.34
3757.00,110.33
3756.00,110.34
3755.00,110.37
3754.00,110.42
3753.00,110.49
3752.00,110.56
3751.00,110.60
3750.00,110.64
3749.00,110.68
3748.00,110.74
3747.00,110.83
3746.00,110.96
3745.00,111.07
3744.00,111.10
3743.00,111.08
3742.00,111.06
3741.00,111.07
3740.00,111.12
3739.00,111.19
3738.00,111.28
3737.00,111.36
3736.00,111.43
3735.00,111.50
3734.00,111.58
3733.00,111.64
3732.00,111.68
3731.00,111.71
3730.00,111.75
3729.00,111.80
3728.00,111.86
3727.00,111.90
3726.00,111.92
3725.00,111.93
3724.00,111.94
3723.00,111.97
3722.00,112.04
3721.00,112.11
3720.00,112.15
3719.00,112.18
3718.00,112.25
3717.00,112.35
3716.00,112.48
3715.00,112.57
3714.00,112.63
3713.00,112.65
3712.00,112.66
3711.00,112.69
3710.00,112.76
3709.00,112.84
3708.00,112.92
3707.00,112.98
3706.00,113.01
3705.00,113.02
3704.00,113.02
3703.00,113.03
3702.00,113.07
3701.00,113.15
3700.00,113.26
3699.00,113.39
3698.00,113.52
3697.00,113.62
3696.00,113.67
3695.00,113.67
3694.00,113.64
3693.00,113.60
3692.00,113.59
3691.00,113.62
3690.00,113.68
3689.00,113.75
3688.00,113.82
3687.00,113.89
3686.00,113.97
3685.00,114.04
3684.00,114.07
3683.00,114.11
3682.00,114.17
3681.00,114.27
3680.00,114.41
3679.00,114.53
3678.00,114.62
3677.00,114.67
3676.00,114.68
3675.00,114.68
3674.00,114.69
3673.00,114.73
3672.00,114.80
3671.00,114.90
3670.00,114.98
3669.00,115.05
3668.00,115.09
3667.00,115.14
3666.00,115.20
3665.00,115.27
3664.00,115.32
3663.00,115.32
3662.00,115.31
3661.00,115.32
3660.00,115.37
3659.00,115.43
3658.00,115.52
3657.00,115.61
3656.00,115.70
3655.00,115.80
3654.00,115.90
3653.00,115.99
3652.00,116.08
3651.00,116.15
3650.00,116.19
3649.00,116.21
3648.00,116.22
3647.00,116.24
3646.00,116.28
3645.00,116.34
3644.00,116.42
3643.00,116.50
3642.00,116.58
3641.00,116.65
3640.00,116.70
3639.00,116.74
3638.00,116.81
3637.00,116.93
3636.00,117.06
3635.00,117.17
3634.00,117.24
3633.00,117.30
3632.00,117.37
3631.00,117.42
3630.00,117.44
3629.00,117.44
3628.00,117.46
3627.00,117.54
3626.00,117.64
3625.00,117.73
3624.00,117.78
3623.00,117.81
3622.00,117.82
3621.00,117.84
3620.00,117.89
3619.00,117.99
3618.00,118.12
3617.00,118.24
3616.00,118.35
3615.00,118.44
3614.00,118.52
3613.00,118.60
3612.00,118.66
3611.00,118.70
3610.00,118.74
3609.00,118.78
3608.00,118.83
3607.00,118.88
3606.00,118.94
3605.00,119.00
3604.00,119.03
3603.00,119.04
3602.00,119.05
3601.00,119.07
3600.00,119.11
3599.00,119.19
3598.00,119.29
3597.00,119.40
3596.00,119.51
3595.00,119.62
3594.00,119.70
3593.00,119.77
3592.00,119.83
3591.00,119.88
3590.00,119.93
3589.00,119.94
3588.00,119.94
3587.00,119.96
3586.00,120.02
3585.00,120.10
3584.00,120.19
3583.00,120.29
3582.00,120.40
3581.00,120.52
3580.00,120.63
3579.00,120.69
3578.00,120.72
3577.00,120.74
3576.00,120.77
3575.00,120.86
3574.00,120.99
3573.00,121.12
3572.00,121.22
3571.00,121.28
3570.00,121.32
3569.00,121.35
3568.00,121.37
3567.00,121.41
3566.00,121.48
3565.00,121.56
3564.00,121.65
3563.00,121.73
3562.00,121.79
3561.00,121.86
3560.00,121.91
3559.00,121.96
3558.00,122.01
3557.00,122.05
3556.00,122.11
3555.00,122.21
3554.00,122.32
3553.00,122.45
3552.00,122.57
3551.00,122.68
3550.00,122.76
3549.00,122.80
3548.00,122.82
3547.00,122.87
3546.00,122.97
3545.00,123.07
3544.00,123.14
3543.00,123.17
3542.00,123.21
3541.00,123.27
3540.00,123.34
3539.00,123.40
3538.00,123.43
3537.00,123.47
3536.00,123.55
3535.00,123.68
3534.00,123.83
3533.00,123.96
3532.00,124.05
3531.00,124.08
3530.00,124.10
3529.00,124.13
3528.00,124.19
3527.00,124.30
3526.00,124.44
3525.00,124.58
3524.00,124.65
3523.00,124.67
3522.00,124.66
3521.00,124.68
3520.00,124.76
3519.00,124.89
3518.00,125.06
3517.00,125.21
3516.00,125.30
3515.00,125.35
3514.00,125.37
3513.00,125.40
3512.00,125.45
3511.00,125.53
3510.00,125.63
3509.00,125.73
3508.00,125.79
3507.00,125.83
3506.00,125.87
3505.00,125.93
3504.00,126.01
3503.00,126.11
3502.00,126.21
3501.00,126.31
3500.00,126.41
3499.00,126.52
3498.00,126.64
3497.00,126.76
3496.00,126.88
3495.00,127.00
3494.00,127.08
3493.00,127.14
3492.00,127.17
3491.00,127.21
3490.00,127.27
3489.00,127.34
3488.00,127.41
3487.00,127.51
3486.00,127.62
3485.00,127.72
3484.00,127.80
3483.00,127.89
3482.00,128.00
3481.00,128.14
3480.00,128.26
3479.00,128.33
3478.00,128.35
3477.00,128.36
3476.00,128.36
3475.00,128.38
3474.00,128.43
3473.00,128.51
3472.00,128.64
3471.00,128.80
3470.00,128.95
3469.00,129.07
3468.00,129.16
3467.00,129.24
3466.00,129.31
3465.00,129.36
3464.00,129.40
3463.00,129.44
3462.00,129.50
3461.00,129.58
3460.00,129.68
3459.00,129.78
3458.00,129.88
3457.00,129.96
3456.00,130.03
3455.00,130.08
3454.00,130.17
3453.00,130.30
3452.00,130.46
3451.00,130.62
3450.00,130.74
3449.00,130.84
3448.00,130.91
3447.00,130.96
3446.00,131.01
3445.00,131.05
3444.00,131.13
3443.00,131.25
3442.00,131.42
3441.00,131.60
3440.00,131.72
3439.00,131.76
3438.00,131.72
3437.00,131.66
3436.00,131.64
3435.00,131.70
3434.00,131.83
3433.00,131.99
3432.00,132.13
3431.00,132.24
3430.00,132.32
3429.00,132.41
3428.00,132.52
3427.00,132.70
3426.00,132.92
3425.00,133.12
3424.00,133.26
3423.00,133.33
3422.00,133.38
3421.00,133.44
3420.00,133.51
3419.00,133.58
3418.00,133.65
3417.00,133.70
3416.00,133.76
3415.00,133.86
3414.00,133.98
3413.00,134.10
3412.00,134.20
3411.00,134.28
3410.00,134.38
3409.00,134.48
3408.00,134.57
3407.00,134.67
3406.00,134.78
3405.00,134.88
3404.00,134.95
3403.00,135.03
3402.00,135.16
3401.00,135.34
3400.00,135.53
3399.00,135.67
3398.00,135.76
3397.00,135.82
3396.00,135.87
3395.00,135.97
3394.00,136.09
3393.00,136.20
3392.00,136.26
3391.00,136.30
3390.00,136.38
3389.00,136.52
3388.00,136.68
3387.00,136.83
3386.00,136.99
3385.00,137.17
3384.00,137.35
3383.00,137.49
3382.00,137.55
3381.00,137.58
3380.00,137.64
3379.00,137.76
3378.00,137.88
3377.00,137.95
3376.00,137.98
3375.00,138.04
3374.00,138.13
3373.00,138.23
3372.00,138.30
3371.00,138.38
3370.00,138.50
3369.00,138.68
3368.00,138.89
3367.00,139.06
3366.00,139.18
3365.00,139.26
3364.00,139.34
3363.00,139.45
3362.00,139.58
3361.00,139.69
3360.00,139.77
3359.00,139.87
3358.00,140.00
3357.00,140.16
3356.00,140.32
3355.00,140.49
3354.00,140.63
3353.00,140.69
3352.00,140.70
3351.00,140.71
3350.00,140.79
3349.00,140.95
3348.00,141.13
3347.00,141.32
3346.00,141.50
3345.00,141.63
3344.00,141.71
3343.00,141.77
3342.00,141.86
3341.00,142.00
3340.00,142.17
3339.00,142.31
3338.00,142.42
3337.00,142.50
3336.00,142.59
3335.00,142.70
3334.00,142.85
3333.00,143.00
3332.00,143.15
3331.00,143.28
3330.00,143.40
3329.00,143.49
3328.00,143.57
3327.00,143.67
3326.00,143.80
3325.00,143.93
3324.00,144.05
3323.00,144.18
3322.00,144.33
3321.00,144.47
3320.00,144.59
3319.00,144.69
3318.00,144.80
3317.00,144.90
3316.00,145.01
3315.00,145.13
3314.00,145.28
3313.00,145.47
3312.00,145.67
3311.00,145.85
3310.00,145.97
3309.00,146.03
3308.00,146.09
3307.00,146.19
3306.00,146.33
3305.00,146.43
3304.00,146.50
3303.00,146.57
3302.00,146.68
3301.00,146.81
3300.00,146.93
3299.00,147.02
3298.00,147.09
3297.00,147.15
3296.00,147.22
3295.00,147.36
3294.00,147.59
3293.00,147.84
3292.00,148.03
3291.00,148.14
3290.00,148.20
3289.00,148.26
3288.00,148.33
3287.00,148.42
3286.00,148.53
3285.00,148.65
3284.00,148.80
3283.00,148.99
3282.00,149.19
3281.00,149.38
3280.00,149.55
3279.00,149.71
3278.00,149.87
3277.00,149.98
3276.00,150.06
3275.00,150.15
3274.00,150.29
3273.00,150.43
3272.00,150.55
3271.00,150.68
3270.00,150.83
3269.00,151.00
3268.00,151.15
3267.00,151.28
3266.00,151.42
3265.00,151.55
3264.00,151.62
3263.00,151.66
3262.00,151.72
3261.00,151.84
3260.00,152.00
3259.00,152.16
3258.00,152.30
3257.00,152.43
3256.00,152.56
3255.00,152.72
3254.00,152.88
3253.00,153.03
3252.00,153.15
3251.00,153.26
3250.00,153.40
3249.00,153.56
3248.00,153.74
3247.00,153.91
3246.00,154.03
3245.00,154.08
3244.00,154.11
3243.00,154.21
3242.00,154.39
3241.00,154.60
3240.00,154.79
3239.00,154.93
3238.00,155.01
3237.00,155.05
3236.00,155.13
3235.00,155.33
3234.00,155.63
3233.00,155.89
3232.00,156.03
3231.00,156.08
3230.00,156.11
3229.00,156.13
3228.00,156.13
3227.00,156.13
3226.00,156.19
3225.00,156.34
3224.00,156.55
3223.00,156.77
3222.00,156.92
3221.00,156.99
3220.00,157.03
3219.00,157.12
3218.00,157.27
3217.00,157.43
3216.00,157.56
3215.00,157.67
3214.00,157.79
3213.00,157.89
3212.00,157.95
3211.00,158.00
3210.00,158.10
3209.00,158.29
3208.00,158.55
3207.00,158.83
3206.00,159.04
3205.00,159.15
3204.00,159.22
3203.00,159.27
3202.00,159.30
3201.00,159.29
3200.00,159.28
3199.00,159.35
3198.00,159.55
3197.00,159.80
3196.00,160.02
3195.00,160.16
3194.00,160.23
3193.00,160.26
3192.00,160.32
3191.00,160.43
3190.00,160.57
3189.00,160.70
3188.00,160.80
3187.00,160.89
3186.00,160.99
3185.00,161.08
3184.00,161.15
3183.00,161.22
3182.00,161.28
3181.00,161.35
3180.00,161.46
3179.00,161.63
3178.00,161.83
3177.00,161.98
3176.00,162.09
3175.00,162.18
3174.00,162.27
3173.00,162.31
3172.00,162.34
3171.00,162.40
3170.00,162.48
3169.00,162.56
3168.00,162.66
3167.00,162.82
3166.00,163.03
3165.00,163.18
3164.00,163.23
3163.00,163.24
3162.00,163.29
3161.00,163.36
3160.00,163.47
3159.00,163.64
3158.00,163.83
3157.00,163.98
3156.00,164.06
3155.00,164.09
3154.00,164.06
3153.00,163.98
3152.00,163.89
3151.00,163.87
3150.00,163.91
3149.00,163.92
3148.00,163.91
3147.00,163.93
3146.00,164.00
3145.00,164.07
3144.00,164.13
3143.00,164.20
3142.00,164.33
3141.00,164.47
3140.00,164.53
3139.00,164.52
3138.00,164.47
3137.00,164.45
3136.00,164.51
3135.00,164.62
3134.00,164.70
3133.00,164.67
3132.00,164.58
3131.00,164.52
3130.00,164.53
3129.00,164.59
3128.00,164.65
3127.00,164.71
3126.00,164.71
3125.00,164.60
3124.00,164.48
3123.00,164.45
3122.00,164.55
3121.00,164.69
3120.00,164.80
3119.00,164.89
3118.00,164.93
3117.00,164.87
3116.00,164.74
3115.00,164.59
3114.00,164.49
3113.00,164.44
3112.00,164.38
3111.00,164.33
3110.00,164.28
3109.00,164.22
3108.00,164.16
3107.00,164.10
3106.00,164.00
3105.00,163.83
3104.00,163.64
3103.00,163.55
3102.00,163.55
3101.00,163.59
3100.00,163.60
3099.00,163.57
3098.00,163.48
3097.00,163.34
3096.00,163.19
3095.00,163.04
3094.00,162.88
3093.00,162.68
3092.00,162.50
3091.00,162.41
3090.00,162.38
3089.00,162.37
3088.00,162.32
3087.00,162.26
3086.00,162.15
3085.00,162.01
3084.00,161.87
3083.00,161.78
3082.00,161.71
3081.00,161.65
3080.00,161.62
3079.00,161.55
3078.00,161.37
3077.00,161.02
3076.00,160.62
3075.00,160.30
3074.00,160.07
3073.00,159.89
3072.00,159.77
3071.00,159.72
3070.00,159.67
3069.00,159.52
3068.00,159.26
3067.00,159.01
3066.00,158.80
3065.00,158.58
3064.00,158.32
3063.00,158.03
3062.00,157.72
3061.00,157.42
3060.00,157.20
3059.00,157.07
3058.00,156.93
3057.00,156.72
3056.00,156.50
3055.00,156.34
3054.00,156.18
3053.00,155.94
3052.00,155.61
3051.00,155.30
3050.00,155.04
3049.00,154.82
3048.00,154.61
3047.00,154.41
3046.00,154.19
3045.00,153.95
3044.00,153.72
3043.00,153.51
3042.00,153.22
3041.00,152.80
3040.00,152.32
3039.00,151.91
3038.00,151.58
3037.00,151.27
3036.00,150.98
3035.00,150.77
3034.00,150.64
3033.00,150.52
3032.00,150.38
3031.00,150.13
3030.00,149.75
3029.00,149.27
3028.00,148.80
3027.00,148.40
3026.00,147.99
3025.00,147.54
3024.00,147.08
3023.00,146.68
3022.00,146.33
3021.00,146.00
3020.00,145.69
3019.00,145.43
3018.00,145.16
3017.00,144.87
3016.00,144.58
3015.00,144.33
3014.00,144.04
3013.00,143.67
3012.00,143.27
3011.00,142.92
3010.00,142.54
3009.00,142.06
3008.00,141.48
3007.00,140.92
3006.00,140.41
3005.00,139.98
3004.00,139.64
3003.00,139.36
3002.00,139.05
3001.00,138.61
3000.00,138.09
2999.00,137.56
2998.00,137.04
2997.00,136.56
2996.00,136.15
2995.00,135.85
2994.00,135.59
2993.00,135.26
2992.00,134.83
2991.00,134.31
2990.00,133.75
2989.00,133.16
2988.00,132.62
2987.00,132.15
2986.00,131.73
2985.00,131.31
2984.00,130.89
2983.00,130.46
2982.00,130.00
2981.00,129.52
2980.00,129.05
2979.00,128.62
2978.00,128.17
2977.00,127.68
2976.00,127.16
2975.00,126.64
2974.00,126.10
2973.00,125.55
2972.00,125.04
2971.00,124.57
2970.00,124.07
2969.00,123.52
2968.00,122.96
2967.00,122.43
2966.00,121.87
2965.00,121.29
2964.00,120.75
2963.00,120.29
2962.00,119.87
2961.00,119.44
2960.00,118.99
2959.00,118.52
2958.00,118.00
2957.00,117.49
2956.00,117.06
2955.00,116.69
2954.00,116.31
2953.00,115.89
2952.00,115.52
2951.00,115.23
2950.00,114.96
2949.00,114.65
2948.00,114.30
2947.00,113.92
2946.00,113.49
2945.00,113.01
2944.00,112.55
2943.00,112.12
2942.00,111.62
2941.00,111.03
2940.00,110.42
2939.00,109.88
2938.00,109.43
2937.00,109.02
2936.00,108.64
2935.00,108.24
2934.00,107.75
2933.00,107.17
2932.00,106.64
2931.00,106.21
2930.00,105.83
2929.00,105.41
2928.00,104.95
2927.00,104.46
2926.00,103.93
2925.00,103.38
2924.00,102.86
2923.00,102.39
2922.00,101.96
2921.00,101.58
2920.00,101.29
2919.00,101.08
2918.00,100.87
2917.00,100.65
2916.00,100.44
2915.00,100.20
2914.00,99.88
2913.00,99.51
2912.00,99.19
2911.00,98.92
2910.00,98.64
2909.00,98.33
2908.00,98.03
2907.00,97.78
2906.00,97.51
2905.00,97.16
2904.00,96.76
2903.00,96.36
2902.00,95.97
2901.00,95.59
2900.00,95.24
2899.00,94.95
2898.00,94.68
2897.00,94.42
2896.00,94.16
2895.00,93.88
2894.00,93.53
2893.00,93.15
2892.00,92.81
2891.00,92.56
2890.00,92.35
2889.00,92.09
2888.00,91.78
2887.00,91.46
2886.00,91.14
2885.00,90.83
2884.00,90.52
2883.00,90.21
2882.00,89.91
2881.00,89.60
2880.00,89.28
2879.00,88.97
2878.00,88.65
2877.00,88.35
2876.00,88.05
2875.00,87.73
2874.00,87.38
2873.00,87.04
2872.00,86.76
2871.00,86.51
2870.00,86.26
2869.00,85.98
2868.00,85.71
2867.00,85.44
2866.00,85.14
2865.00,84.79
2864.00,84.44
2863.00,84.12
2862.00,83.83
2861.00,83.55
2860.00,83.26
2859.00,82.97
2858.00,82.66
2857.00,82.33
2856.00,82.00
2855.00,81.68
2854.00,81.40
2853.00,81.17
2852.00,81.00
2851.00,80.82
2850.00,80.62
2849.00,80.44
2848.00,80.28
2847.00,80.13
2846.00,79.97
2845.00,79.79
2844.00,79.62
2843.00,79.45
2842.00,79.27
2841.00,79.07
2840.00,78.89
2839.00,78.73
2838.00,78.57
2837.00,78.40
2836.00,78.22
2835.00,78.00
2834.00,77.76
2833.00,77.56
2832.00,77.44
2831.00,77.36
2830.00,77.24
2829.00,77.04
2828.00,76.80
2827.00,76.54
2826.00,76.30
2825.00,76.10
2824.00,75.93
2823.00,75.77
2822.00,75.59
2821.00,75.40
2820.00,75.22
2819.00,75.05
2818.00,74.88
2817.00,74.72
2816.00,74.57
2815.00,74.42
2814.00,74.25
2813.00,74.07
2812.00,73.91
2811.00,73.75
2810.00,73.60
2809.00,73.45
2808.00,73.30
2807.00,73.14
2806.00,73.00
2805.00,72.88
2804.00,72.79
2803.00,72.69
2802.00,72.55
2801.00,72.38
2800.00,72.22
2799.00,72.06
2798.00,71.91
2797.00,71.79
2796.00,71.69
2795.00,71.60
2794.00,71.48
2793.00,71.35
2792.00,71.24
2791.00,71.12
2790.00,70.98
2789.00,70.85
2788.00,70.73
2787.00,70.61
2786.00,70.48
2785.00,70.36
2784.00,70.26
2783.00,70.15
2782.00,70.04
2781.00,69.94
2780.00,69.89
2779.00,69.86
2778.00,69.80
2777.00,69.72
2776.00,69.63
2775.00,69.54
2774.00,69.46
2773.00,69.40
2772.00,69.34
2771.00,69.25
2770.00,69.14
2769.00,69.05
2768.00,68.97
2767.00,68.87
2766.00,68.72
2765.00,68.58
2764.00,68.48
2763.00,68.41
2762.00,68.36
2761.00,68.31
2760.00,68.26
2759.00,68.18
2758.00,68.08
2757.00,68.00
2756.00,67.95
2755.00,67.91
2754.00,67.86
2753.00,67.79
2752.00,67.72
2751.00,67.64
2750.00,67.56
2749.00,67.48
2748.00,67.40
2747.00,67.32
2746.00,67.24
2745.00,67.19
2744.00,67.16
2743.00,67.13
2742.00,67.08
2741.00,67.01
2740.00,66.94
2739.00,66.90
2738.00,66.89
2737.00,66.88
2736.00,66.86
2735.00,66.80
2734.00,66.72
2733.00,66.66
2732.00,66.62
2731.00,66.58
2730.00,66.54
2729.00,66.50
2728.00,66.45
2727.00,66.41
2726.00,66.36
2725.00,66.35
2724.00,66.37
2723.00,66.38
2722.00,66.38
2721.00,66.35
2720.00,66.32
2719.00,66.29
2718.00,66.26
2717.00,66.24
2716.00,66.23
2715.00,66.20
2714.00,66.16
2713.00,66.14
2712.00,66.13
2711.00,66.11
2710.00,66.08
2709.00,66.06
2708.00,66.07
2707.00,66.09
2706.00,66.09
2705.00,66.07
2704.00,66.04
2703.00,66.01
2702.00,65.98
2701.00,65.96
2700.00,65.95
2699.00,65.94
2698.00,65.94
2697.00,65.95
2696.00,65.95
2695.00,65.92
2694.00,65.88
2693.00,65.85
2692.00,65.85
2691.00,65.85
2690.00,65.84
2689.00,65.84
2688.00,65.85
2687.00,65.86
2686.00,65.85
2685.00,65.83
2684.00,65.82
2683.00,65.81
2682.00,65.81
2681.00,65.82
2680.00,65.83
2679.00,65.85
2678.00,65.85
2677.00,65.87
2676.00,65.87
2675.00,65.87
2674.00,65.85
2673.00,65.85
2672.00,65.88
2671.00,65.94
2670.00,65.98
2669.00,66.01
2668.00,66.00
2667.00,65.98
2666.00,65.98
2665.00,66.00
2664.00,66.04
2663.00,66.06
2662.00,66.05
2661.00,66.04
2660.00,66.05
2659.00,66.06
2658.00,66.08
2657.00,66.11
2656.00,66.14
2655.00,66.14
2654.00,66.11
2653.00,66.09
2652.00,66.09
2651.00,66.09
2650.00,66.08
2649.00,66.08
2648.00,66.10
2647.00,66.14
2646.00,66.19
2645.00,66.25
2644.00,66.31
2643.00,66.34
2642.00,66.33
2641.00,66.32
2640.00,66.31
2639.00,66.32
2638.00,66.33
2637.00,66.36
2636.00,66.40
2635.00,66.43
2634.00,66.44
2633.00,66.46
2632.00,66.48
2631.00,66.50
2630.00,66.52
2629.00,66.55
2628.00,66.59
2627.00,66.62
2626.00,66.65
2625.00,66.67
2624.00,66.70
2623.00,66.73
2622.00,66.75
2621.00,66.79
2620.00,66.83
2619.00,66.86
2618.00,66.89
2617.00,66.91
2616.00,66.91
2615.00,66.91
2614.00,66.89
2613.00,66.90
2612.00,66.93
2611.00,66.96
2610.00,66.99
2609.00,67.05
2608.00,67.12
2607.00,67.19
2606.00,67.23
2605.00,67.26
2604.00,67.28
2603.00,67.28
2602.00,67.27
2601.00,67.28
2600.00,67.31
2599.00,67.36
2598.00,67.39
2597.00,67.42
2596.00,67.45
2595.00,67.46
2594.00,67.49
2593.00,67.55
2592.00,67.62
2591.00,67.66
2590.00,67.67
2589.00,67.67
2588.00,67.68
2587.00,67.72
2586.00,67.76
2585.00,67.82
2584.00,67.88
2583.00,67.92
2582.00,67.94
2581.00,67.97
2580.00,68.00
2579.00,68.04
2578.00,68.07
2577.00,68.10
2576.00,68.14
2575.00,68.18
2574.00,68.21
2573.00,68.23
2572.00,68.25
2571.00,68.26
2570.00,68.27
2569.00,68.30
2568.00,68.36
2567.00,68.43
2566.00,68.51
2565.00,68.57
2564.00,68.60
2563.00,68.60
2562.00,68.59
2561.00,68.60
2560.00,68.62
2559.00,68.66
2558.00,68.71
2557.00,68.75
2556.00,68.80
2555.00,68.84
2554.00,68.88
2553.00,68.93
2552.00,68.97
2551.00,68.99
2550.00,69.01
2549.00,69.04
2548.00,69.10
2547.00,69.15
2546.00,69.19
2545.00,69.23
2544.00,69.26
2543.00,69.27
2542.00,69.29
2541.00,69.32
2540.00,69.37
2539.00,69.43
2538.00,69.49
2537.00,69.52
2536.00,69.55
2535.00,69.55
2534.00,69.54
2533.00,69.55
2532.00,69.58
2531.00,69.64
2530.00,69.69
2529.00,69.75
2528.00,69.79
2527.00,69.82
2526.00,69.86
2525.00,69.91
2524.00,69.96
2523.00,69.99
2522.00,70.02
2521.00,70.05
2520.00,70.09
2519.00,70.12
2518.00,70.15
2517.00,70.18
2516.00,70.21
2515.00,70.24
2514.00,70.27
2513.00,70.29
2512.00,70.32
2511.00,70.37
2510.00,70.42
2509.00,70.49
2508.00,70.54
2507.00,70.58
2506.00,70.63
2505.00,70.70
2504.00,70.77
2503.00,70.81
2502.00,70.82
2501.00,70.83
2500.00,70.84
2499.00,70.87
2498.00,70.90
2497.00,70.94
2496.00,70.99
2495.00,71.04
2494.00,71.10
2493.00,71.15
2492.00,71.21
2491.00,71.24
2490.00,71.25
2489.00,71.26
2488.00,71.28
2487.00,71.30
2486.00,71.33
2485.00,71.36
2484.00,71.41
2483.00,71.46
2482.00,71.51
2481.00,71.56
2480.00,71.61
2479.00,71.65
2478.00,71.67
2477.00,71.69
2476.00,71.71
2475.00,71.73
2474.00,71.78
2473.00,71.83
2472.00,71.88
2471.00,71.93
2470.00,71.97
2469.00,72.03
2468.00,72.10
2467.00,72.15
2466.00,72.20
2465.00,72.24
2464.00,72.28
2463.00,72.31
2462.00,72.34
2461.00,72.37
2460.00,72.40
2459.00,72.43
2458.00,72.45
2457.00,72.46
2456.00,72.49
2455.00,72.53
2454.00,72.59
2453.00,72.65
2452.00,72.70
2451.00,72.72
2450.00,72.75
2449.00,72.78
2448.00,72.82
2447.00,72.86
2446.00,72.89
2445.00,72.92
2444.00,72.95
2443.00,72.99
2442.00,73.02
2441.00,73.06
2440.00,73.09
2439.00,73.11
2438.00,73.13
2437.00,73.18
2436.00,73.24
2435.00,73.28
2434.00,73.32
2433.00,73.37
2432.00,73.42
2431.00,73.47
2430.00,73.51
2429.00,73.54
2428.00,73.58
2427.00,73.61
2426.00,73.63
2425.00,73.66
2424.00,73.69
2423.00,73.71
2422.00,73.74
2421.00,73.76
2420.00,73.79
2419.00,73.83
2418.00,73.87
2417.00,73.92
2416.00,73.98
2415.00,74.02
2414.00,74.05
2413.00,74.08
2412.00,74.10
2411.00,74.13
2410.00,74.16
2409.00,74.20
2408.00,74.25
2407.00,74.29
2406.00,74.33
2405.00,74.36
2404.00,74.39
2403.00,74.43
2402.00,74.47
2401.00,74.52
2400.00,74.57
2399.00,74.61
2398.00,74.64
2397.00,74.68
2396.00,74.71
2395.00,74.73
2394.00,74.75
2393.00,74.77
2392.00,74.79
2391.00,74.83
2390.00,74.86
2389.00,74.91
2388.00,74.96
2387.00,75.00
2386.00,75.05
2385.00,75.11
2384.00,75.16
2383.00,75.21
2382.00,75.24
2381.00,75.28
2380.00,75.31
2379.00,75.33
2378.00,75.35
2377.00,75.39
2376.00,75.45
2375.00,75.50
2374.00,75.54
2373.00,75.56
2372.00,75.58
2371.00,75.61
2370.00,75.64
2369.00,75.68
2368.00,75.72
2367.00,75.76
2366.00,75.80
2365.00,75.85
2364.00,75.89
2363.00,75.90
2362.00,75.90
2361.00,75.90
2360.00,75.92
2359.00,75.98
2358.00,76.05
2357.00,76.11
2356.00,76.14
2355.00,76.16
2354.00,76.19
2353.00,76.24
2352.00,76.28
2351.00,76.31
2350.00,76.32
2349.00,76.34
2348.00,76.37
2347.00,76.41
2346.00,76.45
2345.00,76.49
2344.00,76.51
2343.00,76.53
2342.00,76.55
2341.00,76.59
2340.00,76.65
2339.00,76.70
2338.00,76.73
2337.00,76.76
2336.00,76.79
2335.00,76.81
2334.00,76.84
2333.00,76.86
2332.00,76.87
2331.00,76.89
2330.00,76.91
2329.00,76.95
2328.00,76.98
2327.00,77.00
2326.00,77.00
2325.00,77.03
2324.00,77.08
2323.00,77.14
2322.00,77.19
2321.00,77.23
2320.00,77.26
2319.00,77.28
2318.00,77.31
2317.00,77.33
2316.00,77.36
2315.00,77.37
2314.00,77.39
2313.00,77.43
2312.00,77.47
2311.00,77.51
2310.00,77.55
2309.00,77.59
2308.00,77.63
2307.00,77.66
2306.00,77.69
2305.00,77.74
2304.00,77.78
2303.00,77.82
2302.00,77.85
2301.00,77.88
2300.00,77.90
2299.00,77.91
2298.00,77.92
2297.00,77.93
2296.00,77.95
2295.00,77.98
2294.00,78.03
2293.00,78.09
2292.00,78.14
2291.00,78.18
2290.00,78.20
2289.00,78.21
2288.00,78.23
2287.00,78.26
2286.00,78.29
2285.00,78.33
2284.00,78.37
2283.00,78.41
2282.00,78.43
2281.00,78.45
2280.00,78.47
2279.00,78.49
2278.00,78.52
2277.00,78.56
2276.00,78.61
2275.00,78.65
2274.00,78.68
2273.00,78.70
2272.00,78.72
2271.00,78.74
2270.00,78.76
2269.00,78.79
2268.00,78.83
2267.00,78.86
2266.00,78.89
2265.00,78.92
2264.00,78.95
2263.00,78.98
2262.00,79.01
2261.00,79.04
2260.00,79.06
2259.00,79.08
2258.00,79.09
2257.00,79.11
2256.00,79.16
2255.00,79.20
2254.00,79.25
2253.00,79.28
2252.00,79.31
2251.00,79.32
2250.00,79.33
2249.00,79.36
2248.00,79.40
2247.00,79.45
2246.00,79.50
2245.00,79.53
2244.00,79.56
2243.00,79.58
2242.00,79.60
2241.00,79.63
2240.00,79.67
2239.00,79.70
2238.00,79.73
2237.00,79.75
2236.00,79.77
2235.00,79.79
2234.00,79.82
2233.00,79.86
2232.00,79.90
2231.00,79.93
2230.00,79.96
2229.00,80.00
2228.00,80.02
2227.00,80.05
2226.00,80.06
2225.00,80.07
2224.00,80.09
2223.00,80.10
2222.00,80.12
2221.00,80.15
2220.00,80.19
2219.00,80.22
2218.00,80.26
2217.00,80.29
2216.00,80.32
2215.00,80.35
2214.00,80.38
2213.00,80.41
2212.00,80.43
2211.00,80.45
2210.00,80.47
2209.00,80.51
2208.00,80.55
2207.00,80.59
2206.00,80.62
2205.00,80.65
2204.00,80.68
2203.00,80.70
2202.00,80.72
2201.00,80.74
2200.00,80.76
2199.00,80.79
2198.00,80.81
2197.00,80.83
2196.00,80.86
2195.00,80.90
2194.00,80.93
2193.00,80.96
2192.00,80.98
2191.00,81.00
2190.00,81.02
2189.00,81.05
2188.00,81.09
2187.00,81.13
2186.00,81.15
2185.00,81.18
2184.00,81.21
2183.00,81.24
2182.00,81.26
2181.00,81.28
2180.00,81.30
2179.00,81.32
2178.00,81.34
2177.00,81.37
2176.00,81.40
2175.00,81.42
2174.00,81.45
2173.00,81.48
2172.00,81.52
2171.00,81.55
2170.00,81.57
2169.00,81.59
2168.00,81.61
2167.00,81.64
2166.00,81.66
2165.00,81.68
2164.00,81.69
2163.00,81.70
2162.00,81.72
2161.00,81.75
2160.00,81.80
2159.00,81.85
2158.00,81.88
2157.00,81.91
2156.00,81.93
2155.00,81.94
2154.00,81.96
2153.00,81.99
2152.00,82.02
2151.00,82.05
2150.00,82.08
2149.00,82.12
2148.00,82.16
2147.00,82.19
2146.00,82.21
2145.00,82.22
2144.00,82.23
2143.00,82.24
2142.00,82.27
2141.00,82.31
2140.00,82.35
2139.00,82.37
2138.00,82.38
2137.00,82.39
2136.00,82.41
2135.00,82.43
2134.00,82.46
2133.00,82.49
2132.00,82.51
2131.00,82.54
2130.00,82.56
2129.00,82.58
2128.00,82.61
2127.00,82.64
2126.00,82.66
2125.00,82.69
2124.00,82.72
2123.00,82.74
2122.00,82.76
2121.00,82.78
2120.00,82.81
2119.00,82.83
2118.00,82.85
2117.00,82.87
2116.00,82.89
2115.00,82.91
2114.00,82.94
2113.00,82.98
2112.00,83.02
2111.00,83.05
2110.00,83.06
2109.00,83.06
2108.00,83.08
2107.00,83.10
2106.00,83.13
2105.00,83.16
2104.00,83.18
2103.00,83.20
2102.00,83.23
2101.00,83.25
2100.00,83.27
2099.00,83.29
2098.00,83.31
2097.00,83.34
2096.00,83.37
2095.00,83.39
2094.00,83.41
2093.00,83.43
2092.00,83.45
2091.00,83.48
2090.00,83.50
2089.00,83.52
2088.00,83.55
2087.00,83.57
2086.00,83.60
2085.00,83.62
2084.00,83.64
2083.00,83.66
2082.00,83.67
2081.00,83.69
2080.00,83.72
2079.00,83.75
2078.00,83.77
2077.00,83.79
2076.00,83.82
2075.00,83.86
2074.00,83.89
2073.00,83.93
2072.00,83.95
2071.00,83.95
2070.00,83.95
2069.00,83.95
2068.00,83.96
2067.00,83.98
2066.00,84.00
2065.00,84.03
2064.00,84.07
2063.00,84.10
2062.00,84.13
2061.00,84.15
2060.00,84.17
2059.00,84.20
2058.00,84.23
2057.00,84.26
2056.00,84.29
2055.00,84.31
2054.00,84.31
2053.00,84.31
2052.00,84.33
2051.00,84.36
2050.00,84.39
2049.00,84.42
2048.00,84.44
2047.00,84.47
2046.00,84.49
2045.00,84.51
2044.00,84.52
2043.00,84.53
2042.00,84.55
2041.00,84.58
2040.00,84.62
2039.00,84.65
2038.00,84.67
2037.00,84.69
2036.00,84.71
2035.00,84.72
2034.00,84.73
2033.00,84.75
2032.00,84.78
2031.00,84.80
2030.00,84.82
2029.00,84.84
2028.00,84.86
2027.00,84.88
2026.00,84.90
2025.00,84.92
2024.00,84.95
2023.00,84.98
2022.00,85.01
2021.00,85.03
2020.00,85.06
2019.00,85.07
2018.00,85.08
2017.00,85.08
2016.00,85.10
2015.00,85.12
2014.00,85.16
2013.00,85.20
2012.00,85.23
2011.00,85.26
2010.00,85.28
2009.00,85.30
2008.00,85.32
2007.00,85.33
2006.00,85.34
2005.00,85.35
2004.00,85.37
2003.00,85.39
2002.00,85.42
2001.00,85.44
2000.00,85.47
1999.00,85.49
1998.00,85.51
1997.00,85.52
1996.00,85.53
1995.00,85.54
1994.00,85.55
1993.00,85.57
1992.00,85.60
1991.00,85.62
1990.00,85.65
1989.00,85.68
1988.00,85.71
1987.00,85.73
1986.00,85.75
1985.00,85.76
1984.00,85.77
1983.00,85.77
1982.00,85.78
1981.00,85.80
1980.00,85.83
1979.00,85.86
1978.00,85.89
1977.00,85.92
1976.00,85.94
1975.00,85.95
1974.00,85.96
1973.00,85.97
1972.00,85.99
1971.00,86.02
1970.00,86.04
1969.00,86.06
1968.00,86.08
1967.00,86.10
1966.00,86.11
1965.00,86.13
1964.00,86.15
1963.00,86.18
1962.00,86.20
1961.00,86.22
1960.00,86.23
1959.00,86.25
1958.00,86.26
1957.00,86.28
1956.00,86.30
1955.00,86.32
1954.00,86.35
1953.00,86.39
1952.00,86.41
1951.00,86.43
1950.00,86.43
1949.00,86.44
1948.00,86.46
1947.00,86.48
1946.00,86.50
1945.00,86.51
1944.00,86.54
1943.00,86.56
1942.00,86.59
1941.00,86.61
1940.00,86.62
1939.00,86.63
1938.00,86.64
1937.00,86.66
1936.00,86.69
1935.00,86.73
1934.00,86.75
1933.00,86.77
1932.00,86.79
1931.00,86.80
1930.00,86.81
1929.00,86.82
1928.00,86.85
1927.00,86.87
1926.00,86.88
1925.00,86.89
1924.00,86.89
1923.00,86.90
1922.00,86.93
1921.00,86.96
1920.00,86.99
1919.00,87.01
1918.00,87.03
1917.00,87.04
1916.00,87.04
1915.00,87.05
1914.00,87.07
1913.00,87.10
1912.00,87.13
1911.00,87.15
1910.00,87.17
1909.00,87.19
1908.00,87.20
1907.00,87.21
1906.00,87.23
1905.00,87.24
1904.00,87.26
1903.00,87.27
1902.00,87.29
1901.00,87.30
1900.00,87.33
1899.00,87.36
1898.00,87.38
1897.00,87.40
1896.00,87.41
1895.00,87.42
1894.00,87.44
1893.00,87.45
1892.00,87.47
1891.00,87.48
1890.00,87.49
1889.00,87.50
1888.00,87.53
1887.00,87.55
1886.00,87.58
1885.00,87.60
1884.00,87.62
1883.00,87.63
1882.00,87.65
1881.00,87.66
1880.00,87.67
1879.00,87.68
1878.00,87.70
1877.00,87.73
1876.00,87.76
1875.00,87.78
1874.00,87.80
1873.00,87.81
1872.00,87.83
1871.00,87.84
1870.00,87.86
1869.00,87.88
1868.00,87.90
1867.00,87.93
1866.00,87.94
1865.00,87.96
1864.00,87.98
1863.00,88.00
1862.00,88.02
1861.00,88.03
1860.00,88.04
1859.00,88.05
1858.00,88.07
1857.00,88.09
1856.00,88.11
1855.00,88.13
1854.00,88.14
1853.00,88.15
1852.00,88.17
1851.00,88.19
1850.00,88.21
1849.00,88.22
1848.00,88.24
1847.00,88.25
1846.00,88.26
1845.00,88.28
1844.00,88.29
1843.00,88.31
1842.00,88.32
1841.00,88.34
1840.00,88.36
1839.00,88.39
1838.00,88.41
1837.00,88.43
1836.00,88.45
1835.00,88.46
1834.00,88.47
1833.00,88.47
1832.00,88.48
1831.00,88.50
1830.00,88.52
1829.00,88.54
1828.00,88.56
1827.00,88.58
1826.00,88.59
1825.00,88.61
1824.00,88.63
1823.00,88.65
1822.00,88.67
1821.00,88.68
1820.00,88.70
1819.00,88.72
1818.00,88.74
1817.00,88.75
1816.00,88.76
1815.00,88.77
1814.00,88.78
1813.00,88.78
1812.00,88.79
1811.00,88.81
1810.00,88.83
1809.00,88.85
1808.00,88.89
1807.00,88.92
1806.00,88.94
1805.00,88.96
1804.00,88.96
1803.00,88.97
1802.00,88.97
1801.00,88.98
1800.00,89.00
1799.00,89.02
1798.00,89.05
1797.00,89.08
1796.00,89.10
1795.00,89.11
1794.00,89.12
1793.00,89.14
1792.00,89.16
1791.00,89.18
1790.00,89.20
1789.00,89.22
1788.00,89.23
1787.00,89.24
1786.00,89.25
1785.00,89.26
1784.00,89.28
1783.00,89.30
1782.00,89.31
1781.00,89.32
1780.00,89.33
1779.00,89.35
1778.00,89.37
1777.00,89.38
1776.00,89.39
1775.00,89.40
1774.00,89.40
1773.00,89.41
1772.00,89.43
1771.00,89.45
1770.00,89.48
1769.00,89.50
1768.00,89.52
1767.00,89.53
1766.00,89.55
1765.00,89.57
1764.00,89.60
1763.00,89.62
1762.00,89.64
1761.00,89.65
1760.00,89.67
1759.00,89.68
1758.00,89.68
1757.00,89.69
1756.00,89.72
1755.00,89.75
1754.00,89.77
1753.00,89.79
1752.00,89.79
1751.00,89.78
1750.00,89.78
1749.00,89.78
1748.00,89.80
1747.00,89.84
1746.00,89.87
1745.00,89.89
1744.00,89.91
1743.00,89.93
1742.00,89.96
1741.00,89.97
1740.00,89.99
1739.00,89.99
1738.00,90.00
1737.00,90.01
1736.00,90.02
1735.00,90.04
1734.00,90.05
1733.00,90.06
1732.00,90.08
1731.00,90.10
1730.00,90.12
1729.00,90.14
1728.00,90.16
1727.00,90.18
1726.00,90.20
1725.00,90.22
1724.00,90.24
1723.00,90.26
1722.00,90.26
1721.00,90.27
1720.00,90.28
1719.00,90.29
1718.00,90.31
1717.00,90.32
1716.00,90.33
1715.00,90.33
1714.00,90.34
1713.00,90.36
1712.00,90.38
1711.00,90.39
1710.00,90.40
1709.00,90.41
1708.00,90.42
1707.00,90.43
1706.00,90.45
1705.00,90.48
1704.00,90.51
1703.00,90.54
1702.00,90.56
1701.00,90.58
1700.00,90.58
1699.00,90.58
1698.00,90.58
1697.00,90.58
1696.00,90.59
1695.00,90.61
1694.00,90.63
1693.00,90.65
1692.00,90.65
1691.00,90.66
1690.00,90.68
1689.00,90.71
1688.00,90.74
1687.00,90.76
1686.00,90.77
1685.00,90.78
1684.00,90.78
1683.00,90.79
1682.00,90.81
1681.00,90.82
1680.00,90.83
1679.00,90.84
1678.00,90.86
1677.00,90.89
1676.00,90.91
1675.00,90.93
1674.00,90.94
1673.00,90.95
1672.00,90.95
1671.00,90.94
1670.00,90.93
1669.00,90.94
1668.00,90.96
1667.00,90.99
1666.00,91.01
1665.00,91.02
1664.00,91.03
1663.00,91.04
1662.00,91.06
1661.00,91.08
1660.00,91.10
1659.00,91.12
1658.00,91.14
1657.00,91.17
1656.00,91.18
1655.00,91.20
1654.00,91.22
1653.00,91.22
1652.00,91.20
1651.00,91.21
1650.00,91.24
1649.00,91.25
1648.00,91.26
1647.00,91.27
1646.00,91.27
1645.00,91.28
1644.00,91.30
1643.00,91.33
1642.00,91.35
1641.00,91.37
1640.00,91.38
1639.00,91.38
1638.00,91.38
1637.00,91.38
1636.00,91.39
1635.00,91.40
1634.00,91.42
1633.00,91.45
1632.00,91.47
1631.00,91.48
1630.00,91.48
1629.00,91.48
1628.00,91.50
1627.00,91.51
1626.00,91.53
1625.00,91.54
1624.00,91.55
1623.00,91.56
1622.00,91.57
1621.00,91.59
1620.00,91.59
1619.00,91.58
1618.00,91.58
1617.00,91.60
1616.00,91.63
1615.00,91.67
1614.00,91.69
1613.00,91.70
1612.00,91.70
1611.00,91.71
1610.00,91.72
1609.00,91.73
1608.00,91.74
1607.00,91.75
1606.00,91.76
1605.00,91.77
1604.00,91.78
1603.00,91.80
1602.00,91.82
1601.00,91.84
1600.00,91.86
1599.00,91.87
1598.00,91.89
1597.00,91.89
1596.00,91.90
1595.00,91.90
1594.00,91.91
1593.00,91.92
1592.00,91.94
1591.00,91.95
1590.00,91.96
1589.00,91.97
1588.00,91.99
1587.00,92.00
1586.00,92.00
1585.00,92.01
1584.00,92.02
1583.00,92.02
1582.00,92.02
1581.00,92.02
1580.00,92.03
1579.00,92.03
1578.00,92.05
1577.00,92.08
1576.00,92.11
1575.00,92.13
1574.00,92.15
1573.00,92.15
1572.00,92.15
1571.00,92.15
1570.00,92.16
1569.00,92.18
1568.00,92.21
1567.00,92.23
1566.00,92.24
1565.00,92.26
1564.00,92.28
1563.00,92.28
1562.00,92.29
1561.00,92.30
1560.00,92.32
1559.00,92.33
1558.00,92.35
1557.00,92.37
1556.00,92.39
1555.00,92.41
1554.00,92.41
1553.00,92.42
1552.00,92.43
1551.00,92.44
1550.00,92.45
1549.00,92.46
1548.00,92.48
1547.00,92.48
1546.00,92.47
1545.00,92.47
1544.00,92.47
1543.00,92.48
1542.00,92.49
1541.00,92.50
1540.00,92.52
1539.00,92.53
1538.00,92.54
1537.00,92.55
1536.00,92.56
1535.00,92.57
1534.00,92.58
1533.00,92.60
1532.00,92.63
1531.00,92.65
1530.00,92.67
1529.00,92.69
1528.00,92.71
1527.00,92.73
1526.00,92.74
1525.00,92.75
1524.00,92.75
1523.00,92.76
1522.00,92.78
1521.00,92.80
1520.00,92.82
1519.00,92.82
1518.00,92.82
1517.00,92.83
1516.00,92.84
1515.00,92.87
1514.00,92.89
1513.00,92.91
1512.00,92.93
1511.00,92.95
1510.00,92.98
1509.00,92.99
1508.00,93.01
1507.00,93.02
1506.00,93.03
1505.00,93.02
1504.00,93.03
1503.00,93.06
1502.00,93.08
1501.00,93.10
1500.00,93.12
1499.00,93.12
1498.00,93.12
1497.00,93.11
1496.00,93.12
1495.00,93.13
1494.00,93.15
1493.00,93.16
1492.00,93.17
1491.00,93.17
1490.00,93.16
1489.00,93.16
1488.00,93.16
1487.00,93.17
1486.00,93.18
1485.00,93.20
1484.00,93.22
1483.00,93.23
1482.00,93.24
1481.00,93.25
1480.00,93.26
1479.00,93.29
1478.00,93.30
1477.00,93.31
1476.00,93.31
1475.00,93.31
1474.00,93.33
1473.00,93.34
1472.00,93.36
1471.00,93.37
1470.00,93.37
1469.00,93.38
1468.00,93.39
1467.00,93.40
1466.00,93.42
1465.00,93.44
1464.00,93.47
1463.00,93.50
1462.00,93.53
1461.00,93.55
1460.00,93.55
1459.00,93.56
1458.00,93.58
1457.00,93.60
1456.00,93.61
1455.00,93.63
1454.00,93.64
1453.00,93.64
1452.00,93.64
1451.00,93.64
1450.00,93.65
1449.00,93.66
1448.00,93.67
1447.00,93.68
1446.00,93.68
1445.00,93.69
1444.00,93.71
1443.00,93.72
1442.00,93.74
1441.00,93.77
1440.00,93.78
1439.00,93.79
1438.00,93.80
1437.00,93.81
1436.00,93.82
1435.00,93.83
1434.00,93.84
1433.00,93.85
1432.00,93.85
1431.00,93.86
1430.00,93.86
1429.00,93.87
1428.00,93.88
1427.00,93.89
1426.00,93.89
1425.00,93.89
1424.00,93.89
1423.00,93.90
1422.00,93.91
1421.00,93.92
1420.00,93.94
1419.00,93.96
1418.00,93.99
1417.00,94.00
1416.00,94.01
1415.00,94.01
1414.00,94.01
1413.00,94.02
1412.00,94.03
1411.00,94.04
1410.00,94.05
1409.00,94.07
1408.00,94.08
1407.00,94.09
1406.00,94.10
1405.00,94.10
1404.00,94.11
1403.00,94.12
1402.00,94.14
1401.00,94.16
1400.00,94.18
1399.00,94.20
1398.00,94.21
1397.00,94.22
1396.00,94.22
1395.00,94.23
1394.00,94.24
1393.00,94.26
1392.00,94.28
1391.00,94.30
1390.00,94.31
1389.00,94.32
1388.00,94.33
1387.00,94.35
1386.00,94.36
1385.00,94.38
1384.00,94.40
1383.00,94.41
1382.00,94.42
1381.00,94.44
1380.00,94.45
1379.00,94.46
1378.00,94.47
1377.00,94.48
1376.00,94.48
1375.00,94.49
1374.00,94.51
1373.00,94.52
1372.00,94.52
1371.00,94.52
1370.00,94.52
1369.00,94.53
1368.00,94.54
1367.00,94.54
1366.00,94.55
1365.00,94.57
1364.00,94.59
1363.00,94.60
1362.00,94.61
1361.00,94.62
1360.00,94.62
1359.00,94.63
1358.00,94.64
1357.00,94.64
1356.00,94.65
1355.00,94.66
1354.00,94.67
1353.00,94.68
1352.00,94.70
1351.00,94.71
1350.00,94.72
1349.00,94.73
1348.00,94.74
1347.00,94.75
1346.00,94.76
1345.00,94.76
1344.00,94.77
1343.00,94.78
1342.00,94.78
1341.00,94.80
1340.00,94.82
1339.00,94.84
1338.00,94.86
1337.00,94.86
1336.00,94.86
1335.00,94.85
1334.00,94.86
1333.00,94.87
1332.00,94.88
1331.00,94.89
1330.00,94.90
1329.00,94.93
1328.00,94.95
1327.00,94.97
1326.00,94.98
1325.00,94.98
1324.00,94.99
1323.00,94.99
1322.00,94.99
1321.00,94.98
1320.00,94.99
1319.00,94.99
1318.00,94.99
1317.00,95.00
1316.00,95.01
1315.00,95.02
1314.00,95.04
1313.00,95.05
1312.00,95.06
1311.00,95.05
1310.00,95.05
1309.00,95.05
1308.00,95.06
1307.00,95.08
1306.00,95.10
1305.00,95.11
1304.00,95.12
1303.00,95.13
1302.00,95.15
1301.00,95.16
1300.00,95.16
1299.00,95.17
1298.00,95.18
1297.00,95.19
1296.00,95.21
1295.00,95.23
1294.00,95.24
1293.00,95.25
1292.00,95.25
1291.00,95.25
1290.00,95.25
1289.00,95.27
1288.00,95.28
1287.00,95.30
1286.00,95.31
1285.00,95.32
1284.00,95.33
1283.00,95.34
1282.00,95.35
1281.00,95.35
1280.00,95.36
1279.00,95.36
1278.00,95.36
1277.00,95.37
1276.00,95.38
1275.00,95.39
1274.00,95.40
1273.00,95.42
1272.00,95.44
1271.00,95.45
1270.00,95.45
1269.00,95.45
1268.00,95.45
1267.00,95.46
1266.00,95.47
1265.00,95.48
1264.00,95.50
1263.00,95.52
1262.00,95.53
1261.00,95.54
1260.00,95.55
1259.00,95.56
1258.00,95.58
1257.00,95.58
1256.00,95.58
1255.00,95.58
1254.00,95.59
1253.00,95.60
1252.00,95.61
1251.00,95.63
1250.00,95.64
1249.00,95.65
1248.00,95.67
1247.00,95.68
1246.00,95.69
1245.00,95.71
1244.00,95.72
1243.00,95.74
1242.00,95.75
1241.00,95.75
1240.00,95.75
1239.00,95.75
1238.00,95.75
1237.00,95.76
1236.00,95.76
1235.00,95.77
1234.00,95.77
1233.00,95.77
1232.00,95.78
1231.00,95.79
1230.00,95.81
1229.00,95.83
1228.00,95.84
1227.00,95.85
1226.00,95.85
1225.00,95.85
1224.00,95.85
1223.00,95.86
1222.00,95.86
1221.00,95.86
1220.00,95.86
1219.00,95.87
1218.00,95.90
1217.00,95.94
1216.00,95.97
1215.00,95.98
1214.00,95.98
1213.00,95.97
1212.00,95.97
1211.00,95.96
1210.00,95.95
1209.00,95.95
1208.00,95.96
1207.00,95.98
1206.00,96.00
1205.00,96.00
1204.00,96.01
1203.00,96.01
1202.00,96.02
1201.00,96.02
1200.00,96.02
1199.00,96.02
1198.00,96.01
1197.00,96.01
1196.00,96.02
1195.00,96.03
1194.00,96.05
1193.00,96.07
1192.00,96.08
1191.00,96.09
1190.00,96.09
1189.00,96.11
1188.00,96.13
1187.00,96.14
1186.00,96.16
1185.00,96.17
1184.00,96.17
1183.00,96.18
1182.00,96.18
1181.00,96.17
1180.00,96.18
1179.00,96.18
1178.00,96.19
1177.00,96.20
1176.00,96.20
1175.00,96.20
1174.00,96.22
1173.00,96.24
1172.00,96.27
1171.00,96.28
1170.00,96.29
1169.00,96.28
1168.00,96.28
1167.00,96.29
1166.00,96.30
1165.00,96.32
1164.00,96.34
1163.00,96.34
1162.00,96.34
1161.00,96.34
1160.00,96.35
1159.00,96.37
1158.00,96.38
1157.00,96.39
1156.00,96.39
1155.00,96.40
1154.00,96.41
1153.00,96.41
1152.00,96.42
1151.00,96.41
1150.00,96.40
1149.00,96.40
1148.00,96.41
1147.00,96.44
1146.00,96.48
1145.00,96.51
1144.00,96.53
1143.00,96.53
1142.00,96.52
1141.00,96.51
1140.00,96.51
1139.00,96.52
1138.00,96.52
1137.00,96.53
1136.00,96.55
1135.00,96.58
1134.00,96.59
1133.00,96.59
1132.00,96.59
1131.00,96.59
1130.00,96.61
1129.00,96.63
1128.00,96.63
1127.00,96.61
1126.00,96.61
1125.00,96.62
1124.00,96.65
1123.00,96.66
1122.00,96.65
1121.00,96.64
1120.00,96.63
1119.00,96.65
1118.00,96.69
1117.00,96.72
1116.00,96.73
1115.00,96.71
1114.00,96.69
1113.00,96.67
1112.00,96.67
1111.00,96.68
1110.00,96.70
1109.00,96.72
1108.00,96.73
1107.00,96.74
1106.00,96.74
1105.00,96.75
1104.00,96.75
1103.00,96.77
1102.00,96.78
1101.00,96.79
1100.00,96.78
1099.00,96.78
1098.00,96.79
1097.00,96.82
1096.00,96.85
1095.00,96.87
1094.00,96.89
1093.00,96.89
1092.00,96.88
1091.00,96.84
1090.00,96.81
1089.00,96.83
1088.00,96.88
1087.00,96.94
1086.00,96.98
1085.00,96.99
1084.00,96.99
1083.00,96.96
1082.00,96.92
1081.00,96.90
1080.00,96.88
1079.00,96.87
1078.00,96.88
1077.00,96.90
1076.00,96.95
1075.00,96.98
1074.00,97.00
1073.00,97.01
1072.00,97.01
1071.00,97.01
1070.00,97.00
1069.00,96.99
1068.00,97.00
1067.00,97.03
1066.00,97.06
1065.00,97.09
1064.00,97.10
1063.00,97.09
1062.00,97.08
1061.00,97.07
1060.00,97.07
1059.00,97.09
1058.00,97.11
1057.00,97.13
1056.00,97.13
1055.00,97.11
1054.00,97.11
1053.00,97.13
1052.00,97.20
1051.00,97.27
1050.00,97.27
1049.00,97.21
1048.00,97.12
1047.00,97.07
1046.00,97.07
1045.00,97.09
1044.00,97.10
1043.00,97.10
1042.00,97.12
1041.00,97.17
1040.00,97.23
1039.00,97.28
1038.00,97.27
1037.00,97.23
1036.00,97.18
1035.00,97.16
1034.00,97.15
1033.00,97.14
1032.00,97.13
1031.00,97.13
1030.00,97.14
1029.00,97.17
1028.00,97.19
1027.00,97.19
1026.00,97.16
1025.00,97.11
1024.00,97.05
1023.00,97.03
1022.00,97.09
1021.00,97.20
1020.00,97.33
1019.00,97.44
1018.00,97.51
1017.00,97.52
1016.00,97.52
1015.00,97.49
1014.00,97.44
1013.00,97.37
1012.00,97.30
1011.00,97.28
1010.00,97.32
1009.00,97.35
1008.00,97.36
1007.00,97.36
1006.00,97.39
1005.00,97.48
1004.00,97.59
1003.00,97.69
1002.00,97.72
1001.00,97.71
1000.00,97.66
999.00,97.61
998.00,97.55
997.00,97.49
996.00,97.44
995.00,97.41
994.00,97.40
993.00,97.41
992.00,97.43
991.00,97.51
990.00,97.62
989.00,97.74
988.00,97.80
987.00,97.80
986.00,97.78
985.00,97.76
984.00,97.71
983.00,97.62
982.00,97.50
981.00,97.39
980.00,97.31
979.00,97.29
978.00,97.27
977.00,97.24
976.00,97.22
975.00,97.27
974.00,97.40
973.00,97.58
972.00,97.74
971.00,97.79
970.00,97.71
969.00,97.56
968.00,97.45
967.00,97.47
966.00,97.58
965.00,97.64
964.00,97.55
963.00,97.34
962.00,97.15
961.00,97.13
960.00,97.33
959.00,97.63
958.00,97.89
957.00,98.02
956.00,98.05
955.00,98.00
954.00,97.87
953.00,97.68
952.00,97.52
951.00,97.54
950.00,97.79
949.00,98.12
948.00,98.27
947.00,98.06
946.00,97.57
945.00,97.09
944.00,96.96
943.00,97.29
942.00,97.83
941.00,98.25
940.00,98.41
939.00,98.45
938.00,98.46
937.00,98.40
936.00,98.23
935.00,98.04
934.00,97.99
933.00,98.09
932.00,98.30
931.00,98.69
930.00,99.33
929.00,100.05
928.00,100.44
927.00,100.30
926.00,99.83
925.00,99.29
924.00,98.76
923.00,98.18
922.00,97.76
921.00,97.82
920.00,98.42
919.00,98.90
918.00,98.49
917.00,97.19
916.00,95.81
915.00,95.23
914.00,95.72
913.00,97.04
912.00,98.76
911.00,100.38
910.00,101.43
909.00,101.73
908.00,101.91
907.00,102.64
906.00,103.94
905.00,105.54
904.00,107.13
903.00,108.43
902.00,108.97
901.00,108.32
900.00,106.83
899.00,105.25
898.00,103.84
897.00,102.90
896.00,101.88
895.00,99.02
894.00,93.96
893.00,88.01
892.00,83.47
891.00,83.20
890.00,86.88
889.00,89.60
888.00,88.09
887.00,84.79
886.00,81.88
885.00,78.40
884.00,75.98
883.00,77.86
882.00,82.18
881.00,85.14
880.00,91.64
879.00,108.93
878.00,132.27
877.00,155.03
876.00,176.05
875.00,176.67
874.00,176.71
873.00,200.02
872.00,190.65
871.00,153.30
870.00,138.60
869.00,145.64
868.00,157.23
867.00,151.28
866.00,136.96
865.00,119.64
864.00,98.86
863.00,81.72
862.00,86.17
861.00,78.18
860.00,106.27
859.00,83.87
858.00,157.77
857.00,264.70
856.00,174.22
855.00,220.06
854.00,258.55
853.00,191.24
852.00,83.32
851.00,124.09
850.00,179.90
849.00,95.06
848.00,43.76
847.00,53.25
846.00,78.81
845.00,85.74
844.00,151.80
843.00,68.23
842.00,30.28
841.00,189.98
840.00,122.48
839.00,101.29
838.00,246.60
837.00,133.81
836.00,16.65
835.00,20.83
834.00,-9.98
833.00,56.27
832.00,93.24
831.00,256.01
830.00,449.95
829.00,159.06
828.00,54.22
827.00,82.50
826.00,27.81
825.00,43.21
824.00,27.73
823.00,30.03
822.00,50.83
821.00,68.31
820.00,53.85
819.00,91.85
818.00,97.13
817.00,25.11
816.00,17.08
815.00,45.38
814.00,71.29
813.00,102.25
812.00,126.34
811.00,131.32
810.00,108.90
809.00,47.29
808.00,27.44
807.00,39.11
806.00,35.46
805.00,60.88
804.00,55.63
803.00,23.79
802.00,50.74
801.00,53.97
800.00,41.62
799.00,46.72
798.00,28.20
797.00,32.37
796.00,51.42
795.00,75.65
794.00,125.60
793.00,128.11
792.00,84.69
791.00,41.23
790.00,53.26
789.00,23.86
788.00,64.58
787.00,-0.52
786.00,121.22
785.00,150.76
784.00,522.68
783.00,803.58
782.00,290.36
781.00,-5.19
780.00,250.09
779.00,933.44
778.00,320.30
777.00,239.55
776.00,180.78
775.00,56.48
774.00,249.87
773.00,55.63
772.00,49.29
771.00,19.41
770.00,64.01
769.00,51.61
768.00,51.71
767.00,50.14
766.00,72.00
765.00,181.53
764.00,148.26
763.00,136.05
762.00,206.22
761.00,153.30
760.00,101.97
759.00,80.26
758.00,40.82
757.00,35.54
756.00,47.02
755.00,45.29
754.00,56.82
753.00,45.80
752.00,24.41
751.00,55.85
750.00,159.84
749.00,134.75
748.00,36.70
747.00,35.88
746.00,76.30
745.00,77.79
744.00,74.93
743.00,83.80
742.00,86.98
741.00,97.57
740.00,128.74
739.00,151.72
738.00,28.99
737.00,31.23
736.00,19.27
735.00,135.98
734.00,85.57
733.00,407.36
732.00,1044.48
731.00,354.47
730.00,103.73
729.00,167.28
728.00,52.61
727.00,66.43
726.00,23.26
725.00,81.56
724.00,80.64
723.00,104.93
722.00,93.97
721.00,36.94
720.00,67.22
719.00,100.54
718.00,77.97
717.00,77.58
716.00,86.82
715.00,80.17
714.00,65.37
713.00,67.46
712.00,75.41
711.00,65.23
710.00,78.88
709.00,40.70
708.00,42.29
707.00,28.63
706.00,134.94
705.00,417.98
704.00,341.26
703.00,256.09
702.00,180.98
701.00,73.84
700.00,51.56
699.00,13.29
698.00,25.15
697.00,30.81
696.00,15.91
695.00,51.17
694.00,98.04
693.00,77.65
692.00,43.70
691.00,33.96
690.00,51.85
689.00,9.55
688.00,33.70
687.00,19.04
686.00,52.15
685.00,71.75
684.00,205.11
683.00,410.23
682.00,101.65
681.00,322.38
680.00,610.45
679.00,319.11
678.00,63.85
677.00,81.71
676.00,33.81
675.00,121.08
674.00,281.53
673.00,46.02
672.00,29.96
671.00,56.33
670.00,96.63
669.00,117.43
668.00,32.78
667.00,67.32
666.00,84.28
665.00,52.33
664.00,12.66
663.00,50.76
662.00,215.11
661.00,228.22
660.00,271.68
659.00,275.97
658.00,110.02
657.00,82.59
656.00,74.03
655.00,52.99
654.00,153.60
653.00,112.98
652.00,96.26
651.00,158.82
650.00,127.56
649.00,73.20
648.00,51.70
647.00,33.44
646.00,43.61
645.00,51.17
644.00,20.54
643.00,32.01
642.00,75.77
641.00,101.69
640.00,85.38
639.00,36.04
638.00,62.96
637.00,83.33
636.00,54.76
635.00,24.35
634.00,24.73
633.00,33.72
632.00,41.58
631.00,57.77
630.00,127.71
629.00,80.91
628.00,11.81
627.00,22.76
626.00,34.89
625.00,59.00
624.00,41.57
623.00,58.22
622.00,211.38
621.00,137.28
620.00,80.69
619.00,107.64
618.00,105.95
617.00,181.48
616.00,163.28
615.00,66.95
614.00,82.27
613.00,93.18
612.00,196.84
611.00,154.65
610.00,58.97
609.00,21.65
608.00,41.39
607.00,59.33
606.00,108.63
605.00,134.56
604.00,246.23
603.00,349.25
602.00,352.37
601.00,574.39
600.00,174.52
599.00,56.87
598.00,58.95
597.00,51.06
596.00,83.06
595.00,152.49
594.00,412.87
593.00,206.40
592.00,125.02
591.00,101.81
590.00,24.18
589.00,44.22
588.00,33.57
587.00,59.27
586.00,84.14
585.00,39.54
584.00,60.38
583.00,73.44
582.00,86.83
581.00,169.37
580.00,248.78
579.00,271.29
578.00,148.13
577.00,110.06
576.00,98.07
575.00,36.11
574.00,24.40
573.00,33.39
572.00,64.79
571.00,104.43
570.00,159.30
569.00,142.70
568.00,126.04
567.00,113.78
566.00,69.08
565.00,56.04
564.00,72.15
563.00,73.92
562.00,76.12
561.00,68.36
560.00,71.77
559.00,86.47
558.00,89.35
557.00,59.70
556.00,29.54
555.00,17.65
554.00,7.49
553.00,76.04
552.00,185.53
551.00,157.23
550.00,63.86
549.00,32.29
548.00,18.58
547.00,9.06
546.00,27.56
545.00,36.99
544.00,28.17
543.00,18.35
542.00,15.87
541.00,34.50
540.00,52.08
539.00,29.28
538.00,82.51
537.00,115.30
536.00,28.60
535.00,11.74
534.00,8.75
533.00,126.70
532.00,194.29
531.00,227.45
530.00,259.03
529.00,151.37
528.00,61.93
527.00,187.51
526.00,601.44
525.00,317.84
524.00,84.66
523.00,111.02
522.00,143.07
521.00,125.77
520.00,65.14
519.00,130.76
518.00,329.13
517.00,346.69
516.00,208.21
515.00,184.22
514.00,89.98
513.00,223.42
512.00,701.91
511.00,232.47
510.00,200.97
509.00,81.65
508.00,17.43
507.00,37.53
506.00,75.06
505.00,59.03
504.00,93.40
503.00,419.82
502.00,106.40
501.00,49.21
500.00,122.54
499.00,73.06
498.00,54.44
497.00,28.23
496.00,29.49
495.00,18.21
494.00,9.47
493.00,53.13
492.00,107.27
491.00,74.77
490.00,33.61
489.00,24.90
488.00,23.21
487.00,51.60
486.00,72.41
485.00,42.41
484.00,22.20
483.00,47.20
482.00,86.26
481.00,80.61
480.00,44.64
479.00,66.06
478.00,200.72
477.00,98.94
476.00,33.52
475.00,59.36
474.00,71.64
473.00,25.77
472.00,83.66
471.00,166.39
470.00,47.36
469.00,78.06
468.00,263.43
467.00,260.55
466.00,170.39
465.00,146.19
464.00,228.08
463.00,522.41
462.00,309.51
461.00,290.49
460.00,78.40
459.00,55.93
458.00,146.92
457.00,79.64
456.00,40.78
455.00,85.43
454.00,137.22
453.00,71.96
452.00,48.61
451.00,58.77
450.00,49.44
