Created as New Dataset,Sample 005 By Administrator Date Friday, October 10 2025
cm-1,%T
4000.00,71.53
3999.00,71.53
3998.00,71.53
3997.00,71.52
3996.00,71.52
3995.00,71.52
3994.00,71.52
3993.00,71.52
3992.00,71.52
3991.00,71.52
3990.00,71.52
3989.00,71.52
3988.00,71.52
3987.00,71.53
3986.00,71.53
3985.00,71.53
3984.00,71.53
3983.00,71.52
3982.00,71.52
3981.00,71.51
3980.00,71.51
3979.00,71.52
3978.00,71.51
3977.00,71.51
3976.00,71.51
3975.00,71.51
3974.00,71.51
3973.00,71.51
3972.00,71.51
3971.00,71.51
3970.00,71.51
3969.00,71.50
3968.00,71.50
3967.00,71.50
3966.00,71.50
3965.00,71.50
3964.00,71.51
3963.00,71.52
3962.00,71.52
3961.00,71.51
3960.00,71.51
3959.00,71.50
3958.00,71.51
3957.00,71.51
3956.00,71.52
3955.00,71.52
3954.00,71.52
3953.00,71.51
3952.00,71.51
3951.00,71.51
3950.00,71.51
3949.00,71.51
3948.00,71.50
3947.00,71.50
3946.00,71.50
3945.00,71.50
3944.00,71.51
3943.00,71.50
3942.00,71.49
3941.00,71.49
3940.00,71.49
3939.00,71.50
3938.00,71.50
3937.00,71.50
3936.00,71.49
3935.00,71.49
3934.00,71.49
3933.00,71.49
3932.00,71.49
3931.00,71.48
3930.00,71.48
3929.00,71.48
3928.00,71.49
3927.00,71.49
3926.00,71.49
3925.00,71.48
3924.00,71.47
3923.00,71.47
3922.00,71.47
3921.00,71.48
3920.00,71.48
3919.00,71.48
3918.00,71.48
3917.00,71.48
3916.00,71.47
3915.00,71.48
3914.00,71.48
3913.00,71.49
3912.00,71.49
3911.00,71.50
3910.00,71.50
3909.00,71.50
3908.00,71.50
3907.00,71.50
3906.00,71.49
3905.00,71.48
3904.00,71.46
3903.00,71.44
3902.00,71.43
3901.00,71.44
3900.00,71.45
3899.00,71.45
3898.00,71.45
3897.00,71.45
3896.00,71.46
3895.00,71.47
3894.00,71.47
3893.00,71.49
3892.00,71.49
3891.00,71.47
3890.00,71.45
3889.00,71.45
3888.00,71.46
3887.00,71.48
3886.00,71.48
3885.00,71.46
3884.00,71.46
3883.00,71.47
3882.00,71.49
3881.00,71.49
3880.00,71.48
3879.00,71.47
3878.00,71.46
3877.00,71.47
3876.00,71.49
3875.00,71.49
3874.00,71.48
3873.00,71.48
3872.00,71.49
3871.00,71.50
3870.00,71.48
3869.00,71.45
3868.00,71.44
3867.00,71.45
3866.00,71.45
3865.00,71.45
3864.00,71.45
3863.00,71.45
3862.00,71.45
3861.00,71.45
3860.00,71.45
3859.00,71.45
3858.00,71.44
3857.00,71.43
3856.00,71.43
3855.00,71.44
3854.00,71.45
3853.00,71.44
3852.00,71.43
3851.00,71.44
3850.00,71.45
3849.00,71.45
3848.00,71.44
3847.00,71.44
3846.00,71.44
3845.00,71.45
3844.00,71.45
3843.00,71.45
3842.00,71.45
3841.00,71.45
3840.00,71.45
3839.00,71.45
3838.00,71.45
3837.00,71.45
3836.00,71.45
3835.00,71.45
3834.00,71.45
3833.00,71.44
3832.00,71.43
3831.00,71.43
3830.00,71.43
3829.00,71.44
3828.00,71.44
3827.00,71.44
3826.00,71.42
3825.00,71.41
3824.00,71.41
3823.00,71.42
3822.00,71.43
3821.00,71.42
3820.00,71.41
3819.00,71.42
3818.00,71.43
3817.00,71.43
3816.00,71.41
3815.00,71.40
3814.00,71.40
3813.00,71.41
3812.00,71.41
3811.00,71.40
3810.00,71.39
3809.00,71.39
3808.00,71.39
3807.00,71.39
3806.00,71.39
3805.00,71.39
3804.00,71.41
3803.00,71.42
3802.00,71.42
3801.00,71.42
3800.00,71.43
3799.00,71.44
3798.00,71.44
3797.00,71.43
3796.00,71.42
3795.00,71.41
3794.00,71.41
3793.00,71.42
3792.00,71.42
3791.00,71.42
3790.00,71.41
3789.00,71.41
3788.00,71.41
3787.00,71.42
3786.00,71.42
3785.00,71.42
3784.00,71.42
3783.00,71.42
3782.00,71.42
3781.00,71.43
3780.00,71.43
3779.00,71.42
3778.00,71.42
3777.00,71.41
3776.00,71.41
3775.00,71.40
3774.00,71.39
3773.00,71.39
3772.00,71.40
3771.00,71.40
3770.00,71.40
3769.00,71.39
3768.00,71.40
3767.00,71.40
3766.00,71.41
3765.00,71.40
3764.00,71.39
3763.00,71.39
3762.00,71.39
3761.00,71.39
3760.00,71.39
3759.00,71.39
3758.00,71.39
3757.00,71.39
3756.00,71.37
3755.00,71.36
3754.00,71.34
3753.00,71.32
3752.00,71.30
3751.00,71.29
3750.00,71.27
3749.00,71.26
3748.00,71.26
3747.00,71.29
3746.00,71.29
3745.00,71.24
3744.00,71.18
3743.00,71.16
3742.00,71.18
3741.00,71.18
3740.00,71.15
3739.00,71.11
3738.00,71.07
3737.00,71.06
3736.00,71.10
3735.00,71.21
3734.00,71.33
3733.00,71.37
3732.00,71.31
3731.00,71.20
3730.00,71.11
3729.00,71.06
3728.00,71.04
3727.00,71.05
3726.00,71.07
3725.00,71.10
3724.00,71.13
3723.00,71.16
3722.00,71.19
3721.00,71.23
3720.00,71.26
3719.00,71.30
3718.00,71.32
3717.00,71.32
3716.00,71.31
3715.00,71.26
3714.00,71.17
3713.00,71.06
3712.00,70.98
3711.00,70.97
3710.00,71.01
3709.00,71.07
3708.00,71.11
3707.00,71.15
3706.00,71.16
3705.00,71.18
3704.00,71.20
3703.00,71.23
3702.00,71.24
3701.00,71.24
3700.00,71.22
3699.00,71.21
3698.00,71.21
3697.00,71.21
3696.00,71.21
3695.00,71.19
3694.00,71.17
3693.00,71.16
3692.00,71.20
3691.00,71.29
3690.00,71.37
3689.00,71.39
3688.00,71.35
3687.00,71.28
3686.00,71.24
3685.00,71.23
3684.00,71.23
3683.00,71.23
3682.00,71.22
3681.00,71.22
3680.00,71.21
3679.00,71.20
3678.00,71.20
3677.00,71.22
3676.00,71.23
3675.00,71.24
3674.00,71.24
3673.00,71.24
3672.00,71.25
3671.00,71.25
3670.00,71.25
3669.00,71.25
3668.00,71.25
3667.00,71.26
3666.00,71.27
3665.00,71.26
3664.00,71.26
3663.00,71.25
3662.00,71.25
3661.00,71.24
3660.00,71.24
3659.00,71.25
3658.00,71.26
3657.00,71.26
3656.00,71.24
3655.00,71.23
3654.00,71.22
3653.00,71.22
3652.00,71.23
3651.00,71.23
3650.00,71.23
3649.00,71.23
3648.00,71.22
3647.00,71.21
3646.00,71.20
3645.00,71.20
3644.00,71.19
3643.00,71.18
3642.00,71.17
3641.00,71.17
3640.00,71.16
3639.00,71.15
3638.00,71.13
3637.00,71.11
3636.00,71.08
3635.00,71.06
3634.00,71.03
3633.00,71.01
3632.00,70.99
3631.00,70.96
3630.00,70.93
3629.00,70.92
3628.00,70.94
3627.00,70.99
3626.00,71.03
3625.00,71.07
3624.00,71.10
3623.00,71.17
3622.00,71.28
3621.00,71.37
3620.00,71.38
3619.00,71.31
3618.00,71.21
3617.00,71.15
3616.00,71.14
3615.00,71.17
3614.00,71.18
3613.00,71.14
3612.00,71.09
3611.00,71.04
3610.00,70.99
3609.00,70.96
3608.00,70.95
3607.00,70.97
3606.00,71.00
3605.00,71.02
3604.00,71.03
3603.00,71.04
3602.00,71.03
3601.00,71.04
3600.00,71.04
3599.00,71.05
3598.00,71.04
3597.00,71.02
3596.00,71.00
3595.00,70.99
3594.00,70.99
3593.00,71.00
3592.00,71.01
3591.00,71.02
3590.00,71.03
3589.00,71.03
3588.00,71.03
3587.00,71.02
3586.00,71.01
3585.00,71.02
3584.00,71.04
3583.00,71.06
3582.00,71.07
3581.00,71.07
3580.00,71.07
3579.00,71.07
3578.00,71.06
3577.00,71.06
3576.00,71.06
3575.00,71.06
3574.00,71.06
3573.00,71.05
3572.00,71.04
3571.00,71.02
3570.00,71.02
3569.00,71.01
3568.00,71.01
3567.00,71.00
3566.00,71.00
3565.00,71.00
3564.00,71.01
3563.00,71.02
3562.00,71.03
3561.00,71.03
3560.00,71.03
3559.00,71.02
3558.00,71.02
3557.00,71.01
3556.00,71.01
3555.00,71.01
3554.00,71.02
3553.00,71.02
3552.00,71.01
3551.00,71.00
3550.00,71.00
3549.00,71.00
3548.00,71.00
3547.00,71.00
3546.00,70.99
3545.00,71.00
3544.00,71.00
3543.00,71.01
3542.00,71.01
3541.00,71.01
3540.00,71.01
3539.00,71.01
3538.00,71.01
3537.00,71.01
3536.00,71.01
3535.00,71.00
3534.00,71.00
3533.00,71.00
3532.00,70.99
3531.00,70.99
3530.00,70.99
3529.00,70.98
3528.00,70.98
3527.00,70.97
3526.00,70.97
3525.00,70.97
3524.00,70.97
3523.00,70.97
3522.00,70.98
3521.00,70.98
3520.00,70.99
3519.00,70.99
3518.00,70.98
3517.00,70.98
3516.00,70.98
3515.00,70.97
3514.00,70.97
3513.00,70.97
3512.00,70.97
3511.00,70.97
3510.00,70.97
3509.00,70.96
3508.00,70.95
3507.00,70.95
3506.00,70.95
3505.00,70.96
3504.00,70.96
3503.00,70.95
3502.00,70.95
3501.00,70.95
3500.00,70.95
3499.00,70.94
3498.00,70.94
3497.00,70.94
3496.00,70.94
3495.00,70.94
3494.00,70.93
3493.00,70.93
3492.00,70.92
3491.00,70.92
3490.00,70.92
3489.00,70.92
3488.00,70.92
3487.00,70.93
3486.00,70.93
3485.00,70.93
3484.00,70.92
3483.00,70.91
3482.00,70.91
3481.00,70.91
3480.00,70.91
3479.00,70.91
3478.00,70.91
3477.00,70.91
3476.00,70.91
3475.00,70.92
3474.00,70.92
3473.00,70.91
3472.00,70.91
3471.00,70.90
3470.00,70.89
3469.00,70.88
3468.00,70.88
3467.00,70.88
3466.00,70.88
3465.00,70.88
3464.00,70.88
3463.00,70.87
3462.00,70.87
3461.00,70.86
3460.00,70.86
3459.00,70.87
3458.00,70.87
3457.00,70.87
3456.00,70.87
3455.00,70.87
3454.00,70.87
3453.00,70.87
3452.00,70.86
3451.00,70.86
3450.00,70.86
3449.00,70.85
3448.00,70.85
3447.00,70.85
3446.00,70.85
3445.00,70.85
3444.00,70.85
3443.00,70.85
3442.00,70.85
3441.00,70.85
3440.00,70.85
3439.00,70.85
3438.00,70.85
3437.00,70.84
3436.00,70.84
3435.00,70.84
3434.00,70.83
3433.00,70.83
3432.00,70.83
3431.00,70.83
3430.00,70.83
3429.00,70.82
3428.00,70.82
3427.00,70.82
3426.00,70.81
3425.00,70.81
3424.00,70.81
3423.00,70.81
3422.00,70.81
3421.00,70.81
3420.00,70.81
3419.00,70.81
3418.00,70.80
3417.00,70.80
3416.00,70.80
3415.00,70.79
3414.00,70.79
3413.00,70.79
3412.00,70.79
3411.00,70.79
3410.00,70.80
3409.00,70.80
3408.00,70.80
3407.00,70.80
3406.00,70.79
3405.00,70.79
3404.00,70.78
3403.00,70.77
3402.00,70.77
3401.00,70.77
3400.00,70.78
3399.00,70.79
3398.00,70.79
3397.00,70.79
3396.00,70.79
3395.00,70.79
3394.00,70.78
3393.00,70.78
3392.00,70.78
3391.00,70.78
3390.00,70.78
3389.00,70.78
3388.00,70.77
3387.00,70.77
3386.00,70.76
3385.00,70.75
3384.00,70.75
3383.00,70.75
3382.00,70.75
3381.00,70.76
3380.00,70.76
3379.00,70.77
3378.00,70.77
3377.00,70.78
3376.00,70.78
3375.00,70.77
3374.00,70.77
3373.00,70.76
3372.00,70.76
3371.00,70.76
3370.00,70.76
3369.00,70.76
3368.00,70.76
3367.00,70.76
3366.00,70.75
3365.00,70.74
3364.00,70.74
3363.00,70.75
3362.00,70.75
3361.00,70.75
3360.00,70.75
3359.00,70.75
3358.00,70.75
3357.00,70.75
3356.00,70.75
3355.00,70.75
3354.00,70.75
3353.00,70.75
3352.00,70.75
3351.00,70.75
3350.00,70.75
3349.00,70.75
3348.00,70.75
3347.00,70.76
3346.00,70.76
3345.00,70.75
3344.00,70.75
3343.00,70.74
3342.00,70.74
3341.00,70.74
3340.00,70.74
3339.00,70.75
3338.00,70.75
3337.00,70.75
3336.00,70.75
3335.00,70.75
3334.00,70.75
3333.00,70.74
3332.00,70.74
3331.00,70.74
3330.00,70.74
3329.00,70.74
3328.00,70.73
3327.00,70.73
3326.00,70.73
3325.00,70.73
3324.00,70.74
3323.00,70.74
3322.00,70.75
3321.00,70.74
3320.00,70.74
3319.00,70.74
3318.00,70.74
3317.00,70.74
3316.00,70.75
3315.00,70.75
3314.00,70.75
3313.00,70.74
3312.00,70.74
3311.00,70.74
3310.00,70.74
3309.00,70.74
3308.00,70.74
3307.00,70.74
3306.00,70.74
3305.00,70.74
3304.00,70.74
3303.00,70.73
3302.00,70.73
3301.00,70.72
3300.00,70.72
3299.00,70.72
3298.00,70.73
3297.00,70.73
3296.00,70.73
3295.00,70.73
3294.00,70.73
3293.00,70.73
3292.00,70.73
3291.00,70.73
3290.00,70.73
3289.00,70.73
3288.00,70.73
3287.00,70.73
3286.00,70.73
3285.00,70.73
3284.00,70.73
3283.00,70.73
3282.00,70.73
3281.00,70.72
3280.00,70.72
3279.00,70.72
3278.00,70.72
3277.00,70.72
3276.00,70.72
3275.00,70.72
3274.00,70.72
3273.00,70.73
3272.00,70.73
3271.00,70.74
3270.00,70.74
3269.00,70.73
3268.00,70.72
3267.00,70.72
3266.00,70.72
3265.00,70.72
3264.00,70.73
3263.00,70.73
3262.00,70.73
3261.00,70.73
3260.00,70.73
3259.00,70.73
3258.00,70.73
3257.00,70.73
3256.00,70.72
3255.00,70.72
3254.00,70.72
3253.00,70.72
3252.00,70.72
3251.00,70.72
3250.00,70.72
3249.00,70.73
3248.00,70.73
3247.00,70.73
3246.00,70.73
3245.00,70.73
3244.00,70.73
3243.00,70.73
3242.00,70.73
3241.00,70.72
3240.00,70.72
3239.00,70.73
3238.00,70.73
3237.00,70.73
3236.00,70.73
3235.00,70.74
3234.00,70.74
3233.00,70.73
3232.00,70.73
3231.00,70.73
3230.00,70.73
3229.00,70.73
3228.00,70.73
3227.00,70.73
3226.00,70.73
3225.00,70.73
3224.00,70.73
3223.00,70.73
3222.00,70.73
3221.00,70.73
3220.00,70.73
3219.00,70.73
3218.00,70.73
3217.00,70.73
3216.00,70.73
3215.00,70.72
3214.00,70.72
3213.00,70.71
3212.00,70.71
3211.00,70.71
3210.00,70.72
3209.00,70.72
3208.00,70.72
3207.00,70.72
3206.00,70.72
3205.00,70.73
3204.00,70.73
3203.00,70.73
3202.00,70.73
3201.00,70.73
3200.00,70.73
3199.00,70.73
3198.00,70.73
3197.00,70.73
3196.00,70.72
3195.00,70.72
3194.00,70.73
3193.00,70.73
3192.00,70.74
3191.00,70.74
3190.00,70.74
3189.00,70.74
3188.00,70.73
3187.00,70.73
3186.00,70.74
3185.00,70.74
3184.00,70.74
3183.00,70.74
3182.00,70.73
3181.00,70.73
3180.00,70.72
3179.00,70.73
3178.00,70.73
3177.00,70.73
3176.00,70.73
3175.00,70.73
3174.00,70.73
3173.00,70.73
3172.00,70.74
3171.00,70.74
3170.00,70.74
3169.00,70.74
3168.00,70.74
3167.00,70.73
3166.00,70.73
3165.00,70.73
3164.00,70.73
3163.00,70.73
3162.00,70.73
3161.00,70.73
3160.00,70.74
3159.00,70.74
3158.00,70.75
3157.00,70.75
3156.00,70.75
3155.00,70.75
3154.00,70.74
3153.00,70.74
3152.00,70.74
3151.00,70.75
3150.00,70.75
3149.00,70.75
3148.00,70.75
3147.00,70.74
3146.00,70.74
3145.00,70.74
3144.00,70.74
3143.00,70.74
3142.00,70.75
3141.00,70.75
3140.00,70.75
3139.00,70.75
3138.00,70.75
3137.00,70.75
3136.00,70.75
3135.00,70.75
3134.00,70.75
3133.00,70.75
3132.00,70.75
3131.00,70.75
3130.00,70.75
3129.00,70.75
3128.00,70.75
3127.00,70.76
3126.00,70.76
3125.00,70.76
3124.00,70.76
3123.00,70.75
3122.00,70.75
3121.00,70.74
3120.00,70.74
3119.00,70.74
3118.00,70.74
3117.00,70.75
3116.00,70.75
3115.00,70.75
3114.00,70.75
3113.00,70.75
3112.00,70.75
3111.00,70.75
3110.00,70.75
3109.00,70.75
3108.00,70.76
3107.00,70.76
3106.00,70.76
3105.00,70.76
3104.00,70.76
3103.00,70.75
3102.00,70.75
3101.00,70.74
3100.00,70.74
3099.00,70.74
3098.00,70.74
3097.00,70.75
3096.00,70.75
3095.00,70.75
3094.00,70.74
3093.00,70.74
3092.00,70.74
3091.00,70.75
3090.00,70.75
3089.00,70.76
3088.00,70.76
3087.00,70.76
3086.00,70.76
3085.00,70.75
3084.00,70.75
3083.00,70.75
3082.00,70.75
3081.00,70.75
3080.00,70.75
3079.00,70.76
3078.00,70.76
3077.00,70.76
3076.00,70.75
3075.00,70.75
3074.00,70.75
3073.00,70.75
3072.00,70.75
3071.00,70.75
3070.00,70.75
3069.00,70.76
3068.00,70.76
3067.00,70.76
3066.00,70.77
3065.00,70.77
3064.00,70.77
3063.00,70.77
3062.00,70.77
3061.00,70.77
3060.00,70.77
3059.00,70.76
3058.00,70.76
3057.00,70.76
3056.00,70.77
3055.00,70.76
3054.00,70.76
3053.00,70.76
3052.00,70.76
3051.00,70.77
3050.00,70.77
3049.00,70.77
3048.00,70.76
3047.00,70.76
3046.00,70.76
3045.00,70.77
3044.00,70.77
3043.00,70.76
3042.00,70.76
3041.00,70.76
3040.00,70.76
3039.00,70.76
3038.00,70.76
3037.00,70.76
3036.00,70.75
3035.00,70.75
3034.00,70.76
3033.00,70.76
3032.00,70.76
3031.00,70.76
3030.00,70.76
3029.00,70.76
3028.00,70.76
3027.00,70.76
3026.00,70.76
3025.00,70.76
3024.00,70.76
3023.00,70.75
3022.00,70.75
3021.00,70.75
3020.00,70.76
3019.00,70.76
3018.00,70.76
3017.00,70.76
3016.00,70.75
3015.00,70.75
3014.00,70.74
3013.00,70.74
3012.00,70.73
3011.00,70.74
3010.00,70.74
3009.00,70.74
3008.00,70.75
3007.00,70.75
3006.00,70.75
3005.00,70.75
3004.00,70.75
3003.00,70.75
3002.00,70.76
3001.00,70.76
3000.00,70.75
2999.00,70.75
2998.00,70.75
2997.00,70.74
2996.00,70.74
2995.00,70.73
2994.00,70.74
2993.00,70.74
2992.00,70.74
2991.00,70.74
2990.00,70.74
2989.00,70.74
2988.00,70.74
2987.00,70.74
2986.00,70.75
2985.00,70.74
2984.00,70.73
2983.00,70.73
2982.00,70.72
2981.00,70.72
2980.00,70.71
2979.00,70.70
2978.00,70.69
2977.00,70.69
2976.00,70.69
2975.00,70.68
2974.00,70.68
2973.00,70.66
2972.00,70.65
2971.00,70.62
2970.00,70.60
2969.00,70.58
2968.00,70.57
2967.00,70.56
2966.00,70.55
2965.00,70.53
2964.00,70.50
2963.00,70.48
2962.00,70.47
2961.00,70.46
2960.00,70.46
2959.00,70.46
2958.00,70.46
2957.00,70.47
2956.00,70.47
2955.00,70.48
2954.00,70.48
2953.00,70.49
2952.00,70.49
2951.00,70.50
2950.00,70.50
2949.00,70.50
2948.00,70.50
2947.00,70.49
2946.00,70.49
2945.00,70.48
2944.00,70.47
2943.00,70.46
2942.00,70.45
2941.00,70.44
2940.00,70.42
2939.00,70.40
2938.00,70.38
2937.00,70.35
2936.00,70.31
2935.00,70.28
2934.00,70.24
2933.00,70.21
2932.00,70.17
2931.00,70.12
2930.00,70.07
2929.00,70.01
2928.00,69.95
2927.00,69.89
2926.00,69.81
2925.00,69.74
2924.00,69.66
2923.00,69.58
2922.00,69.52
2921.00,69.46
2920.00,69.41
2919.00,69.38
2918.00,69.37
2917.00,69.41
2916.00,69.48
2915.00,69.59
2914.00,69.71
2913.00,69.84
2912.00,69.96
2911.00,70.05
2910.00,70.13
2909.00,70.19
2908.00,70.24
2907.00,70.27
2906.00,70.30
2905.00,70.32
2904.00,70.34
2903.00,70.36
2902.00,70.38
2901.00,70.40
2900.00,70.41
2899.00,70.43
2898.00,70.44
2897.00,70.45
2896.00,70.46
2895.00,70.47
2894.00,70.49
2893.00,70.50
2892.00,70.51
2891.00,70.52
2890.00,70.53
2889.00,70.54
2888.00,70.55
2887.00,70.56
2886.00,70.56
2885.00,70.57
2884.00,70.57
2883.00,70.58
2882.00,70.58
2881.00,70.58
2880.00,70.59
2879.00,70.59
2878.00,70.59
2877.00,70.59
2876.00,70.60
2875.00,70.60
2874.00,70.60
2873.00,70.59
2872.00,70.59
2871.00,70.59
2870.00,70.59
2869.00,70.58
2868.00,70.58
2867.00,70.57
2866.00,70.56
2865.00,70.54
2864.00,70.53
2863.00,70.51
2862.00,70.48
2861.00,70.46
2860.00,70.43
2859.00,70.39
2858.00,70.35
2857.00,70.30
2856.00,70.24
2855.00,70.17
2854.00,70.09
2853.00,70.01
2852.00,69.94
2851.00,69.89
2850.00,69.89
2849.00,69.94
2848.00,70.03
2847.00,70.15
2846.00,70.26
2845.00,70.37
2844.00,70.45
2843.00,70.51
2842.00,70.56
2841.00,70.60
2840.00,70.62
2839.00,70.65
2838.00,70.67
2837.00,70.68
2836.00,70.69
2835.00,70.70
2834.00,70.71
2833.00,70.71
2832.00,70.72
2831.00,70.73
2830.00,70.74
2829.00,70.74
2828.00,70.74
2827.00,70.75
2826.00,70.75
2825.00,70.75
2824.00,70.76
2823.00,70.76
2822.00,70.76
2821.00,70.77
2820.00,70.77
2819.00,70.77
2818.00,70.77
2817.00,70.78
2816.00,70.78
2815.00,70.78
2814.00,70.77
2813.00,70.77
2812.00,70.78
2811.00,70.78
2810.00,70.79
2809.00,70.79
2808.00,70.79
2807.00,70.79
2806.00,70.80
2805.00,70.80
2804.00,70.79
2803.00,70.79
2802.00,70.79
2801.00,70.79
2800.00,70.80
2799.00,70.80
2798.00,70.81
2797.00,70.81
2796.00,70.81
2795.00,70.82
2794.00,70.82
2793.00,70.82
2792.00,70.82
2791.00,70.82
2790.00,70.82
2789.00,70.81
2788.00,70.81
2787.00,70.81
2786.00,70.81
2785.00,70.81
2784.00,70.82
2783.00,70.82
2782.00,70.83
2781.00,70.83
2780.00,70.84
2779.00,70.84
2778.00,70.84
2777.00,70.84
2776.00,70.83
2775.00,70.83
2774.00,70.83
2773.00,70.83
2772.00,70.83
2771.00,70.83
2770.00,70.83
2769.00,70.84
2768.00,70.84
2767.00,70.84
2766.00,70.85
2765.00,70.85
2764.00,70.85
2763.00,70.84
2762.00,70.84
2761.00,70.84
2760.00,70.84
2759.00,70.85
2758.00,70.85
2757.00,70.85
2756.00,70.85
2755.00,70.85
2754.00,70.85
2753.00,70.85
2752.00,70.85
2751.00,70.85
2750.00,70.85
2749.00,70.85
2748.00,70.85
2747.00,70.85
2746.00,70.84
2745.00,70.84
2744.00,70.84
2743.00,70.85
2742.00,70.85
2741.00,70.86
2740.00,70.86
2739.00,70.86
2738.00,70.86
2737.00,70.85
2736.00,70.86
2735.00,70.86
2734.00,70.86
2733.00,70.86
2732.00,70.86
2731.00,70.86
2730.00,70.86
2729.00,70.86
2728.00,70.87
2727.00,70.87
2726.00,70.87
2725.00,70.86
2724.00,70.86
2723.00,70.86
2722.00,70.86
2721.00,70.86
2720.00,70.86
2719.00,70.86
2718.00,70.86
2717.00,70.87
2716.00,70.87
2715.00,70.87
2714.00,70.87
2713.00,70.88
2712.00,70.88
2711.00,70.88
2710.00,70.88
2709.00,70.88
2708.00,70.88
2707.00,70.88
2706.00,70.88
2705.00,70.88
2704.00,70.88
2703.00,70.88
2702.00,70.88
2701.00,70.88
2700.00,70.88
2699.00,70.88
2698.00,70.88
2697.00,70.89
2696.00,70.89
2695.00,70.89
2694.00,70.89
2693.00,70.89
2692.00,70.89
2691.00,70.89
2690.00,70.88
2689.00,70.89
2688.00,70.89
2687.00,70.89
2686.00,70.90
2685.00,70.90
2684.00,70.90
2683.00,70.90
2682.00,70.90
2681.00,70.90
2680.00,70.90
2679.00,70.90
2678.00,70.90
2677.00,70.90
2676.00,70.90
2675.00,70.90
2674.00,70.90
2673.00,70.91
2672.00,70.91
2671.00,70.91
2670.00,70.91
2669.00,70.91
2668.00,70.91
2667.00,70.91
2666.00,70.91
2665.00,70.91
2664.00,70.91
2663.00,70.92
2662.00,70.92
2661.00,70.92
2660.00,70.92
2659.00,70.91
2658.00,70.92
2657.00,70.92
2656.00,70.92
2655.00,70.92
2654.00,70.92
2653.00,70.92
2652.00,70.92
2651.00,70.92
2650.00,70.92
2649.00,70.93
2648.00,70.93
2647.00,70.93
2646.00,70.93
2645.00,70.93
2644.00,70.93
2643.00,70.93
2642.00,70.93
2641.00,70.93
2640.00,70.93
2639.00,70.94
2638.00,70.94
2637.00,70.94
2636.00,70.94
2635.00,70.95
2634.00,70.94
2633.00,70.94
2632.00,70.94
2631.00,70.94
2630.00,70.93
2629.00,70.94
2628.00,70.94
2627.00,70.94
2626.00,70.94
2625.00,70.94
2624.00,70.94
2623.00,70.94
2622.00,70.94
2621.00,70.95
2620.00,70.95
2619.00,70.95
2618.00,70.95
2617.00,70.96
2616.00,70.96
2615.00,70.96
2614.00,70.97
2613.00,70.97
2612.00,70.97
2611.00,70.96
2610.00,70.96
2609.00,70.96
2608.00,70.96
2607.00,70.96
2606.00,70.97
2605.00,70.97
2604.00,70.97
2603.00,70.97
2602.00,70.97
2601.00,70.97
2600.00,70.97
2599.00,70.97
2598.00,70.97
2597.00,70.97
2596.00,70.97
2595.00,70.97
2594.00,70.97
2593.00,70.97
2592.00,70.97
2591.00,70.97
2590.00,70.98
2589.00,70.98
2588.00,70.98
2587.00,70.98
2586.00,70.99
2585.00,70.98
2584.00,70.98
2583.00,70.98
2582.00,70.99
2581.00,70.99
2580.00,70.99
2579.00,70.99
2578.00,70.99
2577.00,70.99
2576.00,70.99
2575.00,70.99
2574.00,70.99
2573.00,70.99
2572.00,71.00
2571.00,71.00
2570.00,71.00
2569.00,71.00
2568.00,71.00
2567.00,71.01
2566.00,71.01
2565.00,71.00
2564.00,71.00
2563.00,71.01
2562.00,71.01
2561.00,71.01
2560.00,71.01
2559.00,71.02
2558.00,71.02
2557.00,71.01
2556.00,71.01
2555.00,71.01
2554.00,71.01
2553.00,71.01
2552.00,71.01
2551.00,71.02
2550.00,71.01
2549.00,71.01
2548.00,71.01
2547.00,71.01
2546.00,71.01
2545.00,71.01
2544.00,71.01
2543.00,71.01
2542.00,71.02
2541.00,71.02
2540.00,71.02
2539.00,71.02
2538.00,71.02
2537.00,71.02
2536.00,71.03
2535.00,71.03
2534.00,71.03
2533.00,71.03
2532.00,71.02
2531.00,71.02
2530.00,71.03
2529.00,71.03
2528.00,71.03
2527.00,71.03
2526.00,71.04
2525.00,71.04
2524.00,71.04
2523.00,71.04
2522.00,71.04
2521.00,71.04
2520.00,71.03
2519.00,71.03
2518.00,71.03
2517.00,71.04
2516.00,71.04
2515.00,71.04
2514.00,71.04
2513.00,71.04
2512.00,71.04
2511.00,71.04
2510.00,71.04
2509.00,71.04
2508.00,71.05
2507.00,71.05
2506.00,71.06
2505.00,71.05
2504.00,71.05
2503.00,71.05
2502.00,71.05
2501.00,71.05
2500.00,71.05
2499.00,71.05
2498.00,71.06
2497.00,71.06
2496.00,71.06
2495.00,71.06
2494.00,71.06
2493.00,71.06
2492.00,71.05
2491.00,71.06
2490.00,71.06
2489.00,71.06
2488.00,71.06
2487.00,71.06
2486.00,71.06
2485.00,71.06
2484.00,71.07
2483.00,71.07
2482.00,71.07
2481.00,71.07
2480.00,71.07
2479.00,71.08
2478.00,71.08
2477.00,71.08
2476.00,71.08
2475.00,71.08
2474.00,71.08
2473.00,71.09
2472.00,71.09
2471.00,71.10
2470.00,71.10
2469.00,71.10
2468.00,71.09
2467.00,71.09
2466.00,71.09
2465.00,71.09
2464.00,71.09
2463.00,71.09
2462.00,71.10
2461.00,71.10
2460.00,71.10
2459.00,71.10
2458.00,71.10
2457.00,71.10
2456.00,71.10
2455.00,71.11
2454.00,71.11
2453.00,71.11
2452.00,71.11
2451.00,71.11
2450.00,71.11
2449.00,71.11
2448.00,71.11
2447.00,71.11
2446.00,71.11
2445.00,71.11
2444.00,71.11
2443.00,71.11
2442.00,71.12
2441.00,71.12
2440.00,71.12
2439.00,71.12
2438.00,71.12
2437.00,71.12
2436.00,71.12
2435.00,71.13
2434.00,71.13
2433.00,71.13
2432.00,71.13
2431.00,71.13
2430.00,71.13
2429.00,71.13
2428.00,71.14
2427.00,71.14
2426.00,71.14
2425.00,71.14
2424.00,71.14
2423.00,71.14
2422.00,71.14
2421.00,71.14
2420.00,71.14
2419.00,71.14
2418.00,71.14
2417.00,71.13
2416.00,71.13
2415.00,71.14
2414.00,71.14
2413.00,71.14
2412.00,71.15
2411.00,71.15
2410.00,71.16
2409.00,71.16
2408.00,71.15
2407.00,71.15
2406.00,71.15
2405.00,71.15
2404.00,71.15
2403.00,71.15
2402.00,71.16
2401.00,71.15
2400.00,71.15
2399.00,71.16
2398.00,71.16
2397.00,71.16
2396.00,71.16
2395.00,71.16
2394.00,71.16
2393.00,71.15
2392.00,71.15
2391.00,71.14
2390.00,71.11
2389.00,71.07
2388.00,71.00
2387.00,70.91
2386.00,70.80
2385.00,70.67
2384.00,70.55
2383.00,70.48
2382.00,70.47
2381.00,70.55
2380.00,70.73
2379.00,71.00
2378.00,71.30
2377.00,71.53
2376.00,71.65
2375.00,71.65
2374.00,71.53
2373.00,71.35
2372.00,71.22
2371.00,71.16
2370.00,71.14
2369.00,71.14
2368.00,71.17
2367.00,71.21
2366.00,71.22
2365.00,71.20
2364.00,71.22
2363.00,71.27
2362.00,71.22
2361.00,71.08
2360.00,70.98
2359.00,70.94
2358.00,70.97
2357.00,71.11
2356.00,71.42
2355.00,71.74
2354.00,71.94
2353.00,72.00
2352.00,71.93
2351.00,71.72
2350.00,71.46
2349.00,71.28
2348.00,71.16
2347.00,70.97
2346.00,70.75
2345.00,70.65
2344.00,70.64
2343.00,70.64
2342.00,70.73
2341.00,70.98
2340.00,71.26
2339.00,71.38
2338.00,71.42
2337.00,71.48
2336.00,71.57
2335.00,71.60
2334.00,71.57
2333.00,71.55
2332.00,71.49
2331.00,71.37
2330.00,71.23
2329.00,71.08
2328.00,70.91
2327.00,70.74
2326.00,70.64
2325.00,70.62
2324.00,70.63
2323.00,70.66
2322.00,70.72
2321.00,70.79
2320.00,70.82
2319.00,70.81
2318.00,70.81
2317.00,70.82
2316.00,70.83
2315.00,70.82
2314.00,70.79
2313.00,70.74
2312.00,70.69
2311.00,70.63
2310.00,70.60
2309.00,70.59
2308.00,70.59
2307.00,70.61
2306.00,70.63
2305.00,70.64
2304.00,70.61
2303.00,70.56
2302.00,70.53
2301.00,70.53
2300.00,70.55
2299.00,70.58
2298.00,70.62
2297.00,70.66
2296.00,70.70
2295.00,70.75
2294.00,70.79
2293.00,70.84
2292.00,70.89
2291.00,70.93
2290.00,70.96
2289.00,71.00
2288.00,71.03
2287.00,71.07
2286.00,71.11
2285.00,71.14
2284.00,71.15
2283.00,71.15
2282.00,71.14
2281.00,71.14
2280.00,71.14
2279.00,71.15
2278.00,71.15
2277.00,71.16
2276.00,71.17
2275.00,71.18
2274.00,71.18
2273.00,71.18
2272.00,71.18
2271.00,71.18
2270.00,71.18
2269.00,71.19
2268.00,71.20
2267.00,71.20
2266.00,71.21
2265.00,71.21
2264.00,71.21
2263.00,71.21
2262.00,71.21
2261.00,71.22
2260.00,71.22
2259.00,71.22
2258.00,71.23
2257.00,71.23
2256.00,71.23
2255.00,71.24
2254.00,71.24
2253.00,71.25
2252.00,71.26
2251.00,71.27
2250.00,71.28
2249.00,71.28
2248.00,71.29
2247.00,71.29
2246.00,71.29
2245.00,71.29
2244.00,71.30
2243.00,71.30
2242.00,71.30
2241.00,71.31
2240.00,71.31
2239.00,71.31
2238.00,71.31
2237.00,71.31
2236.00,71.32
2235.00,71.32
2234.00,71.32
2233.00,71.32
2232.00,71.33
2231.00,71.33
2230.00,71.33
2229.00,71.33
2228.00,71.33
2227.00,71.33
2226.00,71.33
2225.00,71.34
2224.00,71.34
2223.00,71.34
2222.00,71.34
2221.00,71.34
2220.00,71.34
2219.00,71.34
2218.00,71.35
2217.00,71.35
2216.00,71.35
2215.00,71.35
2214.00,71.35
2213.00,71.35
2212.00,71.35
2211.00,71.36
2210.00,71.36
2209.00,71.36
2208.00,71.36
2207.00,71.36
2206.00,71.36
2205.00,71.36
2204.00,71.37
2203.00,71.37
2202.00,71.37
2201.00,71.37
2200.00,71.37
2199.00,71.37
2198.00,71.37
2197.00,71.37
2196.00,71.37
2195.00,71.38
2194.00,71.38
2193.00,71.38
2192.00,71.38
2191.00,71.38
2190.00,71.38
2189.00,71.38
2188.00,71.38
2187.00,71.38
2186.00,71.38
2185.00,71.38
2184.00,71.38
2183.00,71.38
2182.00,71.37
2181.00,71.37
2180.00,71.37
2179.00,71.37
2178.00,71.38
2177.00,71.38
2176.00,71.38
2175.00,71.38
2174.00,71.39
2173.00,71.39
2172.00,71.40
2171.00,71.40
2170.00,71.40
2169.00,71.40
2168.00,71.40
2167.00,71.40
2166.00,71.40
2165.00,71.40
2164.00,71.41
2163.00,71.41
2162.00,71.41
2161.00,71.41
2160.00,71.41
2159.00,71.41
2158.00,71.41
2157.00,71.41
2156.00,71.41
2155.00,71.40
2154.00,71.40
2153.00,71.41
2152.00,71.41
2151.00,71.41
2150.00,71.42
2149.00,71.42
2148.00,71.42
2147.00,71.42
2146.00,71.42
2145.00,71.42
2144.00,71.42
2143.00,71.42
2142.00,71.41
2141.00,71.42
2140.00,71.42
2139.00,71.43
2138.00,71.43
2137.00,71.43
2136.00,71.43
2135.00,71.43
2134.00,71.43
2133.00,71.43
2132.00,71.43
2131.00,71.43
2130.00,71.43
2129.00,71.44
2128.00,71.44
2127.00,71.44
2126.00,71.44
2125.00,71.44
2124.00,71.45
2123.00,71.45
2122.00,71.44
2121.00,71.44
2120.00,71.44
2119.00,71.44
2118.00,71.44
2117.00,71.45
2116.00,71.45
2115.00,71.45
2114.00,71.45
2113.00,71.46
2112.00,71.46
2111.00,71.47
2110.00,71.47
2109.00,71.46
2108.00,71.46
2107.00,71.45
2106.00,71.45
2105.00,71.45
2104.00,71.45
2103.00,71.45
2102.00,71.45
2101.00,71.45
2100.00,71.45
2099.00,71.46
2098.00,71.46
2097.00,71.47
2096.00,71.47
2095.00,71.47
2094.00,71.47
2093.00,71.47
2092.00,71.47
2091.00,71.47
2090.00,71.47
2089.00,71.47
2088.00,71.47
2087.00,71.48
2086.00,71.48
2085.00,71.48
2084.00,71.48
2083.00,71.48
2082.00,71.48
2081.00,71.48
2080.00,71.49
2079.00,71.49
2078.00,71.49
2077.00,71.49
2076.00,71.50
2075.00,71.50
2074.00,71.50
2073.00,71.49
2072.00,71.49
2071.00,71.49
2070.00,71.50
2069.00,71.50
2068.00,71.50
2067.00,71.50
2066.00,71.50
2065.00,71.50
2064.00,71.50
2063.00,71.50
2062.00,71.51
2061.00,71.51
2060.00,71.51
2059.00,71.52
2058.00,71.52
2057.00,71.52
2056.00,71.52
2055.00,71.53
2054.00,71.53
2053.00,71.53
2052.00,71.53
2051.00,71.53
2050.00,71.53
2049.00,71.53
2048.00,71.53
2047.00,71.53
2046.00,71.53
2045.00,71.54
2044.00,71.54
2043.00,71.54
2042.00,71.54
2041.00,71.54
2040.00,71.55
2039.00,71.55
2038.00,71.55
2037.00,71.54
2036.00,71.54
2035.00,71.54
2034.00,71.54
2033.00,71.54
2032.00,71.54
2031.00,71.54
2030.00,71.54
2029.00,71.54
2028.00,71.55
2027.00,71.55
2026.00,71.55
2025.00,71.55
2024.00,71.55
2023.00,71.56
2022.00,71.56
2021.00,71.56
2020.00,71.56
2019.00,71.55
2018.00,71.55
2017.00,71.55
2016.00,71.56
2015.00,71.56
2014.00,71.56
2013.00,71.56
2012.00,71.57
2011.00,71.57
2010.00,71.57
2009.00,71.57
2008.00,71.57
2007.00,71.57
2006.00,71.57
2005.00,71.58
2004.00,71.58
2003.00,71.58
2002.00,71.58
2001.00,71.59
2000.00,71.59
1999.00,71.59
1998.00,71.58
1997.00,71.58
1996.00,71.58
1995.00,71.59
1994.00,71.59
1993.00,71.59
1992.00,71.58
1991.00,71.58
1990.00,71.58
1989.00,71.58
1988.00,71.59
1987.00,71.59
1986.00,71.60
1985.00,71.60
1984.00,71.60
1983.00,71.60
1982.00,71.60
1981.00,71.60
1980.00,71.60
1979.00,71.60
1978.00,71.60
1977.00,71.60
1976.00,71.60
1975.00,71.60
1974.00,71.61
1973.00,71.61
1972.00,71.61
1971.00,71.61
1970.00,71.61
1969.00,71.61
1968.00,71.60
1967.00,71.60
1966.00,71.61
1965.00,71.62
1964.00,71.62
1963.00,71.63
1962.00,71.63
1961.00,71.63
1960.00,71.63
1959.00,71.62
1958.00,71.62
1957.00,71.62
1956.00,71.62
1955.00,71.63
1954.00,71.63
1953.00,71.63
1952.00,71.62
1951.00,71.62
1950.00,71.62
1949.00,71.62
1948.00,71.63
1947.00,71.63
1946.00,71.63
1945.00,71.63
1944.00,71.63
1943.00,71.63
1942.00,71.63
1941.00,71.63
1940.00,71.63
1939.00,71.63
1938.00,71.64
1937.00,71.64
1936.00,71.64
1935.00,71.64
1934.00,71.64
1933.00,71.64
1932.00,71.64
1931.00,71.64
1930.00,71.65
1929.00,71.65
1928.00,71.65
1927.00,71.64
1926.00,71.64
1925.00,71.63
1924.00,71.63
1923.00,71.63
1922.00,71.63
1921.00,71.64
1920.00,71.65
1919.00,71.65
1918.00,71.65
1917.00,71.65
1916.00,71.65
1915.00,71.65
1914.00,71.66
1913.00,71.67
1912.00,71.67
1911.00,71.67
1910.00,71.66
1909.00,71.66
1908.00,71.65
1907.00,71.65
1906.00,71.66
1905.00,71.66
1904.00,71.66
1903.00,71.67
1902.00,71.67
1901.00,71.67
1900.00,71.67
1899.00,71.67
1898.00,71.67
1897.00,71.67
1896.00,71.67
1895.00,71.67
1894.00,71.67
1893.00,71.67
1892.00,71.67
1891.00,71.68
1890.00,71.68
1889.00,71.68
1888.00,71.68
1887.00,71.68
1886.00,71.68
1885.00,71.68
1884.00,71.68
1883.00,71.68
1882.00,71.68
1881.00,71.69
1880.00,71.69
1879.00,71.69
1878.00,71.70
1877.00,71.70
1876.00,71.70
1875.00,71.70
1874.00,71.69
1873.00,71.69
1872.00,71.69
1871.00,71.69
1870.00,71.69
1869.00,71.69
1868.00,71.70
1867.00,71.70
1866.00,71.70
1865.00,71.70
1864.00,71.70
1863.00,71.69
1862.00,71.69
1861.00,71.69
1860.00,71.70
1859.00,71.70
1858.00,71.70
1857.00,71.70
1856.00,71.70
1855.00,71.70
1854.00,71.70
1853.00,71.70
1852.00,71.70
1851.00,71.69
1850.00,71.69
1849.00,71.68
1848.00,71.68
1847.00,71.69
1846.00,71.69
1845.00,71.69
1844.00,71.70
1843.00,71.69
1842.00,71.70
1841.00,71.70
1840.00,71.71
1839.00,71.72
1838.00,71.72
1837.00,71.72
1836.00,71.71
1835.00,71.71
1834.00,71.71
1833.00,71.71
1832.00,71.71
1831.00,71.72
1830.00,71.72
1829.00,71.72
1828.00,71.72
1827.00,71.72
1826.00,71.72
1825.00,71.72
1824.00,71.73
1823.00,71.73
1822.00,71.72
1821.00,71.72
1820.00,71.72
1819.00,71.72
1818.00,71.72
1817.00,71.72
1816.00,71.72
1815.00,71.72
1814.00,71.72
1813.00,71.73
1812.00,71.74
1811.00,71.75
1810.00,71.75
1809.00,71.75
1808.00,71.75
1807.00,71.75
1806.00,71.75
1805.00,71.75
1804.00,71.74
1803.00,71.74
1802.00,71.73
1801.00,71.74
1800.00,71.75
1799.00,71.76
1798.00,71.76
1797.00,71.76
1796.00,71.76
1795.00,71.75
1794.00,71.75
1793.00,71.75
1792.00,71.75
1791.00,71.75
1790.00,71.76
1789.00,71.76
1788.00,71.76
1787.00,71.76
1786.00,71.76
1785.00,71.76
1784.00,71.77
1783.00,71.77
1782.00,71.77
1781.00,71.76
1780.00,71.76
1779.00,71.76
1778.00,71.76
1777.00,71.76
1776.00,71.77
1775.00,71.78
1774.00,71.78
1773.00,71.78
1772.00,71.78
1771.00,71.78
1770.00,71.78
1769.00,71.78
1768.00,71.78
1767.00,71.78
1766.00,71.78
1765.00,71.78
1764.00,71.79
1763.00,71.79
1762.00,71.79
1761.00,71.79
1760.00,71.78
1759.00,71.79
1758.00,71.79
1757.00,71.78
1756.00,71.78
1755.00,71.77
1754.00,71.76
1753.00,71.76
1752.00,71.75
1751.00,71.75
1750.00,71.74
1749.00,71.74
1748.00,71.73
1747.00,71.73
1746.00,71.73
1745.00,71.72
1744.00,71.72
1743.00,71.73
1742.00,71.74
1741.00,71.74
1740.00,71.74
1739.00,71.74
1738.00,71.74
1737.00,71.73
1736.00,71.73
1735.00,71.73
1734.00,71.73
1733.00,71.73
1732.00,71.73
1731.00,71.73
1730.00,71.73
1729.00,71.73
1728.00,71.73
1727.00,71.73
1726.00,71.72
1725.00,71.72
1724.00,71.72
1723.00,71.72
1722.00,71.71
1721.00,71.71
1720.00,71.72
1719.00,71.72
1718.00,71.72
1717.00,71.72
1716.00,71.72
1715.00,71.71
1714.00,71.71
1713.00,71.71
1712.00,71.72
1711.00,71.72
1710.00,71.72
1709.00,71.72
1708.00,71.71
1707.00,71.71
1706.00,71.71
1705.00,71.71
1704.00,71.71
1703.00,71.70
1702.00,71.68
1701.00,71.67
1700.00,71.68
1699.00,71.70
1698.00,71.72
1697.00,71.73
1696.00,71.74
1695.00,71.73
1694.00,71.71
1693.00,71.71
1692.00,71.70
1691.00,71.70
1690.00,71.69
1689.00,71.68
1688.00,71.67
1687.00,71.68
1686.00,71.69
1685.00,71.69
1684.00,71.67
1683.00,71.65
1682.00,71.65
1681.00,71.64
1680.00,71.64
1679.00,71.63
1678.00,71.63
1677.00,71.63
1676.00,71.62
1675.00,71.62
1674.00,71.62
1673.00,71.62
1672.00,71.61
1671.00,71.60
1670.00,71.60
1669.00,71.60
1668.00,71.60
1667.00,71.60
1666.00,71.60
1665.00,71.59
1664.00,71.58
1663.00,71.57
1662.00,71.57
1661.00,71.56
1660.00,71.56
1659.00,71.55
1658.00,71.55
1657.00,71.54
1656.00,71.53
1655.00,71.52
1654.00,71.52
1653.00,71.50
1652.00,71.50
1651.00,71.51
1650.00,71.51
1649.00,71.52
1648.00,71.51
1647.00,71.50
1646.00,71.49
1645.00,71.49
1644.00,71.49
1643.00,71.48
1642.00,71.48
1641.00,71.48
1640.00,71.48
1639.00,71.47
1638.00,71.47
1637.00,71.47
1636.00,71.46
1635.00,71.46
1634.00,71.45
1633.00,71.45
1632.00,71.45
1631.00,71.44
1630.00,71.43
1629.00,71.43
1628.00,71.42
1627.00,71.42
1626.00,71.41
1625.00,71.41
1624.00,71.40
1623.00,71.39
1622.00,71.39
1621.00,71.39
1620.00,71.39
1619.00,71.38
1618.00,71.39
1617.00,71.39
1616.00,71.38
1615.00,71.38
1614.00,71.38
1613.00,71.38
1612.00,71.37
1611.00,71.36
1610.00,71.36
1609.00,71.35
1608.00,71.34
1607.00,71.33
1606.00,71.33
1605.00,71.33
1604.00,71.32
1603.00,71.31
1602.00,71.30
1601.00,71.29
1600.00,71.28
1599.00,71.26
1598.00,71.26
1597.00,71.26
1596.00,71.25
1595.00,71.24
1594.00,71.23
1593.00,71.22
1592.00,71.20
1591.00,71.18
1590.00,71.16
1589.00,71.14
1588.00,71.11
1587.00,71.09
1586.00,71.06
1585.00,71.03
1584.00,70.99
1583.00,70.95
1582.00,70.92
1581.00,70.88
1580.00,70.85
1579.00,70.83
1578.00,70.83
1577.00,70.82
1576.00,70.82
1575.00,70.82
1574.00,70.84
1573.00,70.86
1572.00,70.88
1571.00,70.90
1570.00,70.92
1569.00,70.93
1568.00,70.93
1567.00,70.93
1566.00,70.93
1565.00,70.93
1564.00,70.92
1563.00,70.91
1562.00,70.91
1561.00,70.91
1560.00,70.89
1559.00,70.88
1558.00,70.86
1557.00,70.86
1556.00,70.85
1555.00,70.85
1554.00,70.83
1553.00,70.81
1552.00,70.78
1551.00,70.75
1550.00,70.72
1549.00,70.70
1548.00,70.66
1547.00,70.63
1546.00,70.59
1545.00,70.56
1544.00,70.52
1543.00,70.50
1542.00,70.49
1541.00,70.49
1540.00,70.51
1539.00,70.54
1538.00,70.59
1537.00,70.64
1536.00,70.69
1535.00,70.75
1534.00,70.81
1533.00,70.86
1532.00,70.89
1531.00,70.92
1530.00,70.95
1529.00,70.97
1528.00,70.99
1527.00,71.00
1526.00,71.01
1525.00,71.01
1524.00,71.02
1523.00,71.04
1522.00,71.04
1521.00,71.04
1520.00,71.03
1519.00,71.02
1518.00,71.02
1517.00,71.01
1516.00,71.00
1515.00,71.01
1514.00,71.00
1513.00,71.00
1512.00,70.98
1511.00,70.96
1510.00,70.93
1509.00,70.91
1508.00,70.91
1507.00,70.93
1506.00,70.94
1505.00,70.94
1504.00,70.93
1503.00,70.92
1502.00,70.91
1501.00,70.90
1500.00,70.89
1499.00,70.89
1498.00,70.88
1497.00,70.87
1496.00,70.85
1495.00,70.84
1494.00,70.82
1493.00,70.81
1492.00,70.79
1491.00,70.77
1490.00,70.75
1489.00,70.74
1488.00,70.73
1487.00,70.72
1486.00,70.71
1485.00,70.70
1484.00,70.69
1483.00,70.67
1482.00,70.66
1481.00,70.65
1480.00,70.63
1479.00,70.61
1478.00,70.59
1477.00,70.56
1476.00,70.53
1475.00,70.49
1474.00,70.46
1473.00,70.42
1472.00,70.39
1471.00,70.37
1470.00,70.36
1469.00,70.35
1468.00,70.34
1467.00,70.33
1466.00,70.32
1465.00,70.32
1464.00,70.33
1463.00,70.34
1462.00,70.35
1461.00,70.36
1460.00,70.36
1459.00,70.36
1458.00,70.36
1457.00,70.35
1456.00,70.34
1455.00,70.33
1454.00,70.33
1453.00,70.33
1452.00,70.33
1451.00,70.33
1450.00,70.33
1449.00,70.32
1448.00,70.32
1447.00,70.31
1446.00,70.31
1445.00,70.30
1444.00,70.29
1443.00,70.29
1442.00,70.28
1441.00,70.27
1440.00,70.26
1439.00,70.25
1438.00,70.24
1437.00,70.21
1436.00,70.19
1435.00,70.17
1434.00,70.16
1433.00,70.15
1432.00,70.14
1431.00,70.14
1430.00,70.13
1429.00,70.12
1428.00,70.10
1427.00,70.08
1426.00,70.06
1425.00,70.05
1424.00,70.03
1423.00,70.02
1422.00,70.01
1421.00,70.00
1420.00,69.97
1419.00,69.95
1418.00,69.93
1417.00,69.92
1416.00,69.91
1415.00,69.91
1414.00,69.90
1413.00,69.89
1412.00,69.88
1411.00,69.87
1410.00,69.86
1409.00,69.85
1408.00,69.84
1407.00,69.84
1406.00,69.83
1405.00,69.82
1404.00,69.82
1403.00,69.81
1402.00,69.81
1401.00,69.80
1400.00,69.78
1399.00,69.76
1398.00,69.75
1397.00,69.75
1396.00,69.75
1395.00,69.75
1394.00,69.74
1393.00,69.73
1392.00,69.71
1391.00,69.70
1390.00,69.69
1389.00,69.68
1388.00,69.67
1387.00,69.65
1386.00,69.64
1385.00,69.62
1384.00,69.60
1383.00,69.59
1382.00,69.57
1381.00,69.55
1380.00,69.52
1379.00,69.50
1378.00,69.48
1377.00,69.46
1376.00,69.44
1375.00,69.42
1374.00,69.41
1373.00,69.40
1372.00,69.39
1371.00,69.37
1370.00,69.36
1369.00,69.33
1368.00,69.31
1367.00,69.29
1366.00,69.28
1365.00,69.25
1364.00,69.22
1363.00,69.18
1362.00,69.16
1361.00,69.14
1360.00,69.13
1359.00,69.12
1358.00,69.10
1357.00,69.08
1356.00,69.04
1355.00,69.01
1354.00,68.99
1353.00,68.97
1352.00,68.95
1351.00,68.92
1350.00,68.89
1349.00,68.86
1348.00,68.84
1347.00,68.81
1346.00,68.78
1345.00,68.75
1344.00,68.72
1343.00,68.70
1342.00,68.67
1341.00,68.64
1340.00,68.60
1339.00,68.58
1338.00,68.54
1337.00,68.51
1336.00,68.47
1335.00,68.43
1334.00,68.41
1333.00,68.37
1332.00,68.34
1331.00,68.30
1330.00,68.27
1329.00,68.23
1328.00,68.19
1327.00,68.16
1326.00,68.12
1325.00,68.09
1324.00,68.05
1323.00,68.02
1322.00,67.98
1321.00,67.93
1320.00,67.88
1319.00,67.84
1318.00,67.80
1317.00,67.76
1316.00,67.72
1315.00,67.69
1314.00,67.65
1313.00,67.62
1312.00,67.59
1311.00,67.56
1310.00,67.52
1309.00,67.48
1308.00,67.42
1307.00,67.37
1306.00,67.32
1305.00,67.28
1304.00,67.23
1303.00,67.19
1302.00,67.15
1301.00,67.10
1300.00,67.06
1299.00,67.01
1298.00,66.96
1297.00,66.91
1296.00,66.87
1295.00,66.83
1294.00,66.78
1293.00,66.73
1292.00,66.67
1291.00,66.61
1290.00,66.56
1289.00,66.51
1288.00,66.46
1287.00,66.42
1286.00,66.37
1285.00,66.32
1284.00,66.26
1283.00,66.21
1282.00,66.16
1281.00,66.10
1280.00,66.05
1279.00,65.99
1278.00,65.94
1277.00,65.88
1276.00,65.81
1275.00,65.75
1274.00,65.68
1273.00,65.62
1272.00,65.56
1271.00,65.49
1270.00,65.41
1269.00,65.33
1268.00,65.25
1267.00,65.16
1266.00,65.08
1265.00,64.99
1264.00,64.89
1263.00,64.79
1262.00,64.70
1261.00,64.63
1260.00,64.56
1259.00,64.51
1258.00,64.46
1257.00,64.41
1256.00,64.36
1255.00,64.31
1254.00,64.26
1253.00,64.20
1252.00,64.12
1251.00,64.05
1250.00,63.99
1249.00,63.92
1248.00,63.85
1247.00,63.78
1246.00,63.71
1245.00,63.64
1244.00,63.55
1243.00,63.47
1242.00,63.38
1241.00,63.29
1240.00,63.20
1239.00,63.12
1238.00,63.04
1237.00,62.96
1236.00,62.87
1235.00,62.78
1234.00,62.69
1233.00,62.61
1232.00,62.52
1231.00,62.43
1230.00,62.34
1229.00,62.25
1228.00,62.15
1227.00,62.05
1226.00,61.96
1225.00,61.86
1224.00,61.76
1223.00,61.67
1222.00,61.58
1221.00,61.48
1220.00,61.38
1219.00,61.28
1218.00,61.19
1217.00,61.09
1216.00,60.99
1215.00,60.89
1214.00,60.79
1213.00,60.69
1212.00,60.58
1211.00,60.48
1210.00,60.38
1209.00,60.27
1208.00,60.16
1207.00,60.04
1206.00,59.93
1205.00,59.81
1204.00,59.69
1203.00,59.57
1202.00,59.47
1201.00,59.35
1200.00,59.24
1199.00,59.12
1198.00,59.01
1197.00,58.89
1196.00,58.76
1195.00,58.65
1194.00,58.53
1193.00,58.40
1192.00,58.27
1191.00,58.15
1190.00,58.02
1189.00,57.90
1188.00,57.77
1187.00,57.65
1186.00,57.53
1185.00,57.39
1184.00,57.25
1183.00,57.11
1182.00,56.98
1181.00,56.84
1180.00,56.70
1179.00,56.55
1178.00,56.41
1177.00,56.27
1176.00,56.13
1175.00,56.00
1174.00,55.85
1173.00,55.70
1172.00,55.53
1171.00,55.38
1170.00,55.22
1169.00,55.06
1168.00,54.89
1167.00,54.73
1166.00,54.57
1165.00,54.41
1164.00,54.24
1163.00,54.07
1162.00,53.90
1161.00,53.72
1160.00,53.54
1159.00,53.36
1158.00,53.19
1157.00,53.01
1156.00,52.83
1155.00,52.66
1154.00,52.49
1153.00,52.31
1152.00,52.12
1151.00,51.94
1150.00,51.76
1149.00,51.58
1148.00,51.39
1147.00,51.21
1146.00,51.02
1145.00,50.82
1144.00,50.62
1143.00,50.43
1142.00,50.24
1141.00,50.04
1140.00,49.85
1139.00,49.66
1138.00,49.47
1137.00,49.27
1136.00,49.06
1135.00,48.86
1134.00,48.66
1133.00,48.45
1132.00,48.24
1131.00,48.03
1130.00,47.81
1129.00,47.59
1128.00,47.37
1127.00,47.15
1126.00,46.93
1125.00,46.71
1124.00,46.48
1123.00,46.26
1122.00,46.04
1121.00,45.81
1120.00,45.56
1119.00,45.34
1118.00,45.12
1117.00,44.89
1116.00,44.66
1115.00,44.43
1114.00,44.20
1113.00,43.96
1112.00,43.71
1111.00,43.47
1110.00,43.24
1109.00,42.99
1108.00,42.74
1107.00,42.50
1106.00,42.26
1105.00,42.02
1104.00,41.78
1103.00,41.54
1102.00,41.31
1101.00,41.05
1100.00,40.80
1099.00,40.55
1098.00,40.31
1097.00,40.07
1096.00,39.82
1095.00,39.58
1094.00,39.34
1093.00,39.09
1092.00,38.83
1091.00,38.59
1090.00,38.34
1089.00,38.07
1088.00,37.80
1087.00,37.55
1086.00,37.30
1085.00,37.03
1084.00,36.77
1083.00,36.51
1082.00,36.26
1081.00,36.01
1080.00,35.75
1079.00,35.49
1078.00,35.24
1077.00,34.97
1076.00,34.70
1075.00,34.44
1074.00,34.17
1073.00,33.89
1072.00,33.61
1071.00,33.34
1070.00,33.07
1069.00,32.79
1068.00,32.51
1067.00,32.24
1066.00,31.97
1065.00,31.68
1064.00,31.40
1063.00,31.12
1062.00,30.85
1061.00,30.56
1060.00,30.27
1059.00,29.99
1058.00,29.71
1057.00,29.42
1056.00,29.12
1055.00,28.85
1054.00,28.59
1053.00,28.31
1052.00,28.01
1051.00,27.73
1050.00,27.45
1049.00,27.15
1048.00,26.84
1047.00,26.56
1046.00,26.28
1045.00,25.99
1044.00,25.70
1043.00,25.43
1042.00,25.16
1041.00,24.87
1040.00,24.58
1039.00,24.29
1038.00,24.02
1037.00,23.72
1036.00,23.43
1035.00,23.15
1034.00,22.89
1033.00,22.60
1032.00,22.30
1031.00,22.02
1030.00,21.74
1029.00,21.45
1028.00,21.16
1027.00,20.88
1026.00,20.61
1025.00,20.32
1024.00,20.04
1023.00,19.77
1022.00,19.51
1021.00,19.23
1020.00,18.95
1019.00,18.69
1018.00,18.43
1017.00,18.16
1016.00,17.89
1015.00,17.63
1014.00,17.38
1013.00,17.10
1012.00,16.83
1011.00,16.57
1010.00,16.32
1009.00,16.06
1008.00,15.81
1007.00,15.57
1006.00,15.33
1005.00,15.06
1004.00,14.79
1003.00,14.54
1002.00,14.30
1001.00,14.05
1000.00,13.81
999.00,13.58
998.00,13.35
997.00,13.09
996.00,12.84
995.00,12.61
994.00,12.39
993.00,12.15
992.00,11.90
991.00,11.67
990.00,11.45
989.00,11.22
988.00,10.99
987.00,10.77
986.00,10.56
985.00,10.33
984.00,10.11
983.00,9.90
982.00,9.70
981.00,9.47
980.00,9.24
979.00,9.03
978.00,8.84
977.00,8.63
976.00,8.42
975.00,8.23
974.00,8.05
973.00,7.85
972.00,7.66
971.00,7.48
970.00,7.30
969.00,7.11
968.00,6.92
967.00,6.75
966.00,6.59
965.00,6.41
964.00,6.23
963.00,6.07
962.00,5.91
961.00,5.75
960.00,5.58
959.00,5.43
958.00,5.28
957.00,5.12
956.00,4.95
955.00,4.80
954.00,4.66
953.00,4.52
952.00,4.38
951.00,4.25
950.00,4.13
949.00,3.98
948.00,3.83
947.00,3.70
946.00,3.59
945.00,3.46
944.00,3.34
943.00,3.23
942.00,3.14
941.00,3.02
940.00,2.90
939.00,2.80
938.00,2.71
937.00,2.60
936.00,2.50
935.00,2.41
934.00,2.32
933.00,2.22
932.00,2.11
931.00,2.03
930.00,1.96
929.00,1.88
928.00,1.78
927.00,1.71
926.00,1.64
925.00,1.57
924.00,1.50
923.00,1.44
922.00,1.38
921.00,1.31
920.00,1.25
919.00,1.21
918.00,1.18
917.00,1.12
916.00,1.06
915.00,1.01
914.00,0.98
913.00,0.92
912.00,0.86
911.00,0.82
910.00,0.79
909.00,0.75
908.00,0.71
907.00,0.68
906.00,0.65
905.00,0.61
904.00,0.56
903.00,0.53
902.00,0.52
901.00,0.48
900.00,0.45
899.00,0.43
898.00,0.42
897.00,0.40
896.00,0.36
895.00,0.35
894.00,0.34
893.00,0.32
892.00,0.28
891.00,0.27
890.00,0.25
889.00,0.23
888.00,0.20
887.00,0.21
886.00,0.22
885.00,0.21
884.00,0.20
883.00,0.20
882.00,0.20
881.00,0.18
880.00,0.15
879.00,0.14
878.00,0.14
877.00,0.12
876.00,0.10
875.00,0.09
874.00,0.09
873.00,0.08
872.00,0.08
871.00,0.07
870.00,0.08
869.00,0.06
868.00,0.04
867.00,0.04
866.00,0.06
865.00,0.05
864.00,0.04
863.00,0.04
862.00,0.04
861.00,0.04
860.00,0.06
859.00,0.06
858.00,0.05
857.00,0.05
856.00,0.05
855.00,0.04
854.00,0.04
853.00,0.03
852.00,0.03
851.00,0.01
850.00,0.00
849.00,0.02
848.00,0.05
847.00,0.03
846.00,0.01
845.00,0.04
844.00,0.06
843.00,0.05
842.00,0.02
841.00,0.03
840.00,0.04
839.00,0.03
838.00,0.03
837.00,0.04
836.00,0.05
835.00,0.04
834.00,0.03
833.00,0.05
832.00,0.06
831.00,0.03
830.00,0.00
829.00,0.02
828.00,0.03
827.00,0.02
826.00,0.02
825.00,0.03
824.00,0.04
823.00,0.03
822.00,0.03
821.00,0.04
820.00,0.04
819.00,0.02
818.00,0.02
817.00,0.01
816.00,0.04
815.00,0.04
814.00,0.04
813.00,0.06
812.00,0.08
811.00,0.05
810.00,0.02
809.00,0.04
808.00,0.05
807.00,0.03
806.00,0.00
805.00,0.01
804.00,0.03
803.00,0.03
802.00,0.04
801.00,0.05
800.00,0.07
799.00,0.06
798.00,0.05
797.00,0.07
796.00,0.09
795.00,0.07
794.00,0.05
793.00,0.06
792.00,0.07
791.00,0.05
790.00,0.02
789.00,0.03
788.00,0.04
787.00,0.02
786.00,0.01
785.00,0.03
784.00,0.05
783.00,0.03
782.00,0.02
781.00,0.03
780.00,0.06
779.00,0.07
778.00,0.06
777.00,0.07
776.00,0.07
775.00,0.04
774.00,0.03
773.00,0.05
772.00,0.08
771.00,0.07
770.00,0.06
769.00,0.06
768.00,0.07
767.00,0.06
766.00,0.04
765.00,0.04
764.00,0.05
763.00,0.02
762.00,0.01
761.00,0.03
760.00,0.05
759.00,0.04
758.00,0.02
757.00,0.04
756.00,0.05
755.00,0.04
754.00,0.03
753.00,0.05
752.00,0.07
751.00,0.05
750.00,0.03
749.00,0.03
748.00,0.04
747.00,0.03
746.00,0.01
745.00,0.02
744.00,0.03
743.00,0.02
742.00,0.01
741.00,0.04
740.00,0.06
739.00,0.04
738.00,0.02
737.00,0.04
736.00,0.05
735.00,0.03
734.00,0.01
733.00,0.03
732.00,0.06
731.00,0.06
730.00,0.04
729.00,0.06
728.00,0.08
727.00,0.06
726.00,0.04
725.00,0.06
724.00,0.08
723.00,0.06
722.00,0.03
721.00,0.04
720.00,0.06
719.00,0.05
718.00,0.04
717.00,0.03
716.00,0.04
715.00,0.02
714.00,0.01
713.00,0.03
712.00,0.07
711.00,0.07
710.00,0.06
709.00,0.07
708.00,0.07
707.00,0.02
706.00,0.02
705.00,0.01
704.00,0.04
703.00,0.05
702.00,0.04
701.00,0.05
700.00,0.04
699.00,0.02
698.00,0.05
697.00,0.04
696.00,0.04
695.00,0.04
694.00,0.02
693.00,0.05
692.00,0.07
691.00,0.04
690.00,0.01
689.00,0.01
688.00,0.06
687.00,0.07
686.00,0.06
685.00,0.05
684.00,0.07
683.00,0.04
682.00,0.01
681.00,0.02
680.00,0.04
679.00,0.07
678.00,0.08
677.00,0.05
676.00,0.04
675.00,0.02
674.00,0.03
673.00,0.01
672.00,0.02
671.00,0.01
670.00,0.01
669.00,0.09
668.00,0.17
667.00,0.13
666.00,0.08
665.00,0.08
664.00,0.10
663.00,0.07
662.00,0.05
661.00,0.07
660.00,0.09
659.00,0.07
658.00,0.05
657.00,0.08
656.00,0.11
655.00,0.09
654.00,0.08
653.00,0.09
652.00,0.09
651.00,0.06
650.00,0.04
649.00,0.07
648.00,0.10
647.00,0.08
646.00,0.04
645.00,0.06
644.00,0.07
643.00,0.03
642.00,0.00
641.00,0.04
640.00,0.07
639.00,0.05
638.00,0.02
637.00,0.06
636.00,0.08
635.00,0.03
634.00,0.02
633.00,0.02
632.00,0.04
631.00,0.04
630.00,0.05
629.00,0.07
628.00,0.08
627.00,0.06
626.00,0.05
625.00,0.08
624.00,0.10
623.00,0.05
622.00,0.01
621.00,0.03
620.00,0.05
619.00,0.02
618.00,0.03
617.00,0.05
616.00,0.09
615.00,0.08
614.00,0.05
613.00,0.05
612.00,0.06
611.00,0.03
610.00,0.04
609.00,0.05
608.00,0.03
607.00,0.05
606.00,0.08
605.00,0.03
604.00,0.03
603.00,0.04
602.00,0.05
601.00,0.08
600.00,0.11
599.00,0.10
598.00,0.09
597.00,0.09
596.00,0.14
595.00,0.14
594.00,0.11
593.00,0.13
592.00,0.15
591.00,0.10
590.00,0.05
589.00,0.05
588.00,0.08
587.00,0.05
586.00,0.02
585.00,0.08
584.00,0.14
583.00,0.11
582.00,0.05
581.00,0.06
580.00,0.09
579.00,0.06
578.00,0.06
577.00,0.13
576.00,0.18
575.00,0.14
574.00,0.08
573.00,0.09
572.00,0.08
571.00,0.02
570.00,0.10
569.00,0.06
568.00,0.05
567.00,0.04
566.00,0.02
565.00,0.04
564.00,0.11
563.00,0.09
562.00,0.05
561.00,0.10
560.00,0.15
559.00,0.13
558.00,0.08
557.00,0.11
556.00,0.18
555.00,0.13
554.00,0.08
553.00,0.13
552.00,0.19
551.00,0.17
550.00,0.14
549.00,0.18
548.00,0.19
547.00,0.12
546.00,0.07
545.00,0.09
544.00,0.13
543.00,0.09
542.00,0.05
541.00,0.12
540.00,0.17
539.00,0.11
538.00,0.07
537.00,0.12
536.00,0.17
535.00,0.16
534.00,0.18
533.00,0.20
532.00,0.16
531.00,0.03
530.00,0.04
529.00,0.03
528.00,0.09
527.00,0.07
526.00,0.02
525.00,0.10
524.00,0.19
523.00,0.16
522.00,0.09
521.00,0.07
520.00,0.13
519.00,0.14
518.00,0.16
517.00,0.20
516.00,0.22
515.00,0.13
514.00,0.04
513.00,0.07
512.00,0.10
511.00,0.07
510.00,0.05
509.00,0.14
508.00,0.22
507.00,0.15
506.00,0.05
505.00,0.08
504.00,0.10
503.00,0.04
502.00,0.01
501.00,0.12
500.00,0.21
499.00,0.16
498.00,0.11
497.00,0.14
496.00,0.17
495.00,0.09
494.00,0.10
493.00,0.04
492.00,0.06
491.00,0.14
490.00,0.22
489.00,0.22
488.00,0.25
487.00,0.23
486.00,0.20
485.00,0.27
484.00,0.32
483.00,0.21
482.00,0.11
481.00,0.20
480.00,0.25
479.00,0.15
478.00,0.11
477.00,0.08
476.00,0.17
475.00,0.17
474.00,0.16
473.00,0.32
472.00,0.45
471.00,0.36
470.00,0.25
469.00,0.30
468.00,0.38
467.00,0.26
466.00,0.12
465.00,0.18
464.00,0.30
463.00,0.20
462.00,0.05
461.00,0.14
460.00,0.24
459.00,0.13
458.00,0.06
457.00,0.26
456.00,0.46
455.00,0.36
454.00,0.22
453.00,0.36
452.00,0.53
451.00,0.44
450.00,0.25
