Created as New Dataset,Sample 007 By Administrator Date Thursday, October 16 2025
cm-1,%T
4000.00,96.68
3999.00,96.67
3998.00,96.65
3997.00,96.64
3996.00,96.64
3995.00,96.66
3994.00,96.69
3993.00,96.71
3992.00,96.71
3991.00,96.71
3990.00,96.71
3989.00,96.73
3988.00,96.73
3987.00,96.72
3986.00,96.70
3985.00,96.68
3984.00,96.67
3983.00,96.67
3982.00,96.69
3981.00,96.71
3980.00,96.74
3979.00,96.75
3978.00,96.74
3977.00,96.71
3976.00,96.69
3975.00,96.67
3974.00,96.68
3973.00,96.70
3972.00,96.72
3971.00,96.73
3970.00,96.73
3969.00,96.74
3968.00,96.75
3967.00,96.77
3966.00,96.77
3965.00,96.74
3964.00,96.69
3963.00,96.67
3962.00,96.69
3961.00,96.74
3960.00,96.76
3959.00,96.76
3958.00,96.73
3957.00,96.71
3956.00,96.71
3955.00,96.72
3954.00,96.73
3953.00,96.73
3952.00,96.73
3951.00,96.72
3950.00,96.72
3949.00,96.77
3948.00,96.87
3947.00,96.97
3946.00,96.99
3945.00,96.91
3944.00,96.80
3943.00,96.77
3942.00,96.83
3941.00,96.91
3940.00,96.91
3939.00,96.86
3938.00,96.83
3937.00,96.84
3936.00,96.85
3935.00,96.81
3934.00,96.73
3933.00,96.65
3932.00,96.62
3931.00,96.67
3930.00,96.77
3929.00,96.89
3928.00,96.94
3927.00,96.88
3926.00,96.77
3925.00,96.76
3924.00,96.90
3923.00,97.10
3922.00,97.22
3921.00,97.19
3920.00,97.02
3919.00,96.83
3918.00,96.70
3917.00,96.68
3916.00,96.77
3915.00,96.90
3914.00,96.95
3913.00,96.92
3912.00,96.88
3911.00,96.91
3910.00,96.99
3909.00,97.06
3908.00,97.11
3907.00,97.21
3906.00,97.39
3905.00,97.61
3904.00,97.73
3903.00,97.72
3902.00,97.57
3901.00,97.34
3900.00,97.14
3899.00,97.05
3898.00,97.09
3897.00,97.16
3896.00,97.18
3895.00,97.16
3894.00,97.20
3893.00,97.33
3892.00,97.49
3891.00,97.56
3890.00,97.54
3889.00,97.44
3888.00,97.32
3887.00,97.21
3886.00,97.16
3885.00,97.19
3884.00,97.18
3883.00,97.02
3882.00,96.75
3881.00,96.61
3880.00,96.81
3879.00,97.20
3878.00,97.44
3877.00,97.37
3876.00,97.09
3875.00,96.93
3874.00,97.09
3873.00,97.45
3872.00,97.78
3871.00,97.87
3870.00,97.78
3869.00,97.72
3868.00,97.75
3867.00,97.75
3866.00,97.63
3865.00,97.45
3864.00,97.38
3863.00,97.42
3862.00,97.48
3861.00,97.47
3860.00,97.34
3859.00,97.03
3858.00,96.51
3857.00,96.00
3856.00,95.83
3855.00,96.06
3854.00,96.26
3853.00,96.24
3852.00,96.28
3851.00,96.48
3850.00,96.71
3849.00,96.91
3848.00,97.07
3847.00,97.14
3846.00,97.10
3845.00,97.09
3844.00,97.21
3843.00,97.37
3842.00,97.44
3841.00,97.48
3840.00,97.64
3839.00,97.87
3838.00,97.97
3837.00,97.88
3836.00,97.78
3835.00,97.77
3834.00,97.79
3833.00,97.73
3832.00,97.59
3831.00,97.42
3830.00,97.23
3829.00,97.02
3828.00,96.85
3827.00,96.84
3826.00,97.03
3825.00,97.34
3824.00,97.65
3823.00,97.84
3822.00,97.80
3821.00,97.62
3820.00,97.51
3819.00,97.48
3818.00,97.43
3817.00,97.25
3816.00,96.96
3815.00,96.80
3814.00,96.89
3813.00,97.09
3812.00,97.23
3811.00,97.31
3810.00,97.41
3809.00,97.56
3808.00,97.68
3807.00,97.67
3806.00,97.57
3805.00,97.47
3804.00,97.39
3803.00,97.35
3802.00,97.25
3801.00,97.09
3800.00,96.98
3799.00,96.95
3798.00,96.94
3797.00,96.97
3796.00,97.06
3795.00,97.16
3794.00,97.19
3793.00,97.14
3792.00,97.07
3791.00,97.04
3790.00,97.04
3789.00,97.01
3788.00,96.86
3787.00,96.66
3786.00,96.54
3785.00,96.62
3784.00,96.86
3783.00,97.04
3782.00,97.00
3781.00,96.79
3780.00,96.66
3779.00,96.76
3778.00,97.00
3777.00,97.18
3776.00,97.23
3775.00,97.22
3774.00,97.20
3773.00,97.18
3772.00,97.13
3771.00,97.13
3770.00,97.23
3769.00,97.37
3768.00,97.43
3767.00,97.35
3766.00,97.24
3765.00,97.22
3764.00,97.30
3763.00,97.36
3762.00,97.30
3761.00,97.18
3760.00,97.14
3759.00,97.23
3758.00,97.36
3757.00,97.38
3756.00,97.23
3755.00,96.97
3754.00,96.73
3753.00,96.63
3752.00,96.64
3751.00,96.66
3750.00,96.66
3749.00,96.63
3748.00,96.52
3747.00,96.32
3746.00,96.11
3745.00,95.93
3744.00,95.91
3743.00,96.19
3742.00,96.61
3741.00,96.91
3740.00,97.15
3739.00,97.50
3738.00,97.91
3737.00,98.13
3736.00,98.10
3735.00,98.01
3734.00,97.94
3733.00,97.79
3732.00,97.55
3731.00,97.35
3730.00,97.30
3729.00,97.32
3728.00,97.34
3727.00,97.32
3726.00,97.28
3725.00,97.21
3724.00,97.14
3723.00,97.08
3722.00,97.08
3721.00,97.09
3720.00,97.10
3719.00,97.13
3718.00,97.24
3717.00,97.37
3716.00,97.46
3715.00,97.45
3714.00,97.39
3713.00,97.31
3712.00,97.24
3711.00,97.22
3710.00,97.24
3709.00,97.25
3708.00,97.21
3707.00,97.17
3706.00,97.13
3705.00,97.12
3704.00,97.09
3703.00,97.04
3702.00,97.02
3701.00,97.07
3700.00,97.11
3699.00,97.06
3698.00,96.93
3697.00,96.83
3696.00,96.86
3695.00,96.96
3694.00,96.99
3693.00,96.95
3692.00,96.96
3691.00,97.16
3690.00,97.37
3689.00,97.33
3688.00,97.05
3687.00,96.79
3686.00,96.70
3685.00,96.73
3684.00,96.80
3683.00,96.81
3682.00,96.77
3681.00,96.74
3680.00,96.84
3679.00,97.14
3678.00,97.54
3677.00,97.74
3676.00,97.53
3675.00,97.27
3674.00,97.34
3673.00,97.64
3672.00,97.83
3671.00,97.66
3670.00,97.23
3669.00,96.87
3668.00,96.73
3667.00,96.67
3666.00,96.57
3665.00,96.43
3664.00,96.32
3663.00,96.26
3662.00,96.24
3661.00,96.29
3660.00,96.42
3659.00,96.59
3658.00,96.73
3657.00,96.76
3656.00,96.74
3655.00,96.75
3654.00,96.84
3653.00,97.02
3652.00,97.39
3651.00,97.85
3650.00,97.94
3649.00,97.37
3648.00,96.52
3647.00,95.95
3646.00,95.80
3645.00,95.78
3644.00,95.68
3643.00,95.52
3642.00,95.41
3641.00,95.38
3640.00,95.34
3639.00,95.30
3638.00,95.34
3637.00,95.43
3636.00,95.49
3635.00,95.50
3634.00,95.51
3633.00,95.58
3632.00,95.70
3631.00,95.89
3630.00,96.02
3629.00,95.91
3628.00,95.62
3627.00,95.37
3626.00,95.24
3625.00,95.22
3624.00,95.27
3623.00,95.40
3622.00,95.61
3621.00,95.82
3620.00,95.88
3619.00,95.71
3618.00,95.42
3617.00,95.14
3616.00,94.93
3615.00,94.85
3614.00,94.95
3613.00,95.16
3612.00,95.33
3611.00,95.29
3610.00,95.03
3609.00,94.72
3608.00,94.55
3607.00,94.57
3606.00,94.66
3605.00,94.65
3604.00,94.47
3603.00,94.18
3602.00,93.93
3601.00,93.84
3600.00,93.93
3599.00,94.10
3598.00,94.26
3597.00,94.35
3596.00,94.39
3595.00,94.41
3594.00,94.44
3593.00,94.50
3592.00,94.55
3591.00,94.49
3590.00,94.35
3589.00,94.22
3588.00,94.21
3587.00,94.30
3586.00,94.36
3585.00,94.31
3584.00,94.19
3583.00,94.06
3582.00,93.96
3581.00,93.91
3580.00,93.85
3579.00,93.79
3578.00,93.73
3577.00,93.68
3576.00,93.66
3575.00,93.68
3574.00,93.76
3573.00,93.87
3572.00,93.97
3571.00,94.02
3570.00,93.96
3569.00,93.79
3568.00,93.58
3567.00,93.47
3566.00,93.49
3565.00,93.57
3564.00,93.59
3563.00,93.54
3562.00,93.48
3561.00,93.46
3560.00,93.45
3559.00,93.44
3558.00,93.41
3557.00,93.39
3556.00,93.32
3555.00,93.17
3554.00,92.99
3553.00,92.91
3552.00,92.98
3551.00,93.12
3550.00,93.19
3549.00,93.14
3548.00,93.03
3547.00,92.92
3546.00,92.88
3545.00,92.89
3544.00,92.92
3543.00,92.96
3542.00,92.97
3541.00,92.96
3540.00,92.91
3539.00,92.85
3538.00,92.78
3537.00,92.74
3536.00,92.75
3535.00,92.79
3534.00,92.78
3533.00,92.70
3532.00,92.57
3531.00,92.42
3530.00,92.31
3529.00,92.27
3528.00,92.30
3527.00,92.38
3526.00,92.42
3525.00,92.38
3524.00,92.30
3523.00,92.28
3522.00,92.32
3521.00,92.35
3520.00,92.32
3519.00,92.28
3518.00,92.26
3517.00,92.25
3516.00,92.23
3515.00,92.18
3514.00,92.12
3513.00,92.05
3512.00,91.96
3511.00,91.88
3510.00,91.87
3509.00,91.93
3508.00,91.99
3507.00,91.97
3506.00,91.85
3505.00,91.70
3504.00,91.63
3503.00,91.68
3502.00,91.79
3501.00,91.87
3500.00,91.85
3499.00,91.77
3498.00,91.66
3497.00,91.59
3496.00,91.58
3495.00,91.60
3494.00,91.62
3493.00,91.62
3492.00,91.58
3491.00,91.52
3490.00,91.45
3489.00,91.40
3488.00,91.39
3487.00,91.42
3486.00,91.42
3485.00,91.36
3484.00,91.26
3483.00,91.18
3482.00,91.17
3481.00,91.22
3480.00,91.27
3479.00,91.28
3478.00,91.24
3477.00,91.17
3476.00,91.11
3475.00,91.08
3474.00,91.08
3473.00,91.08
3472.00,91.07
3471.00,91.04
3470.00,91.01
3469.00,90.98
3468.00,90.95
3467.00,90.93
3466.00,90.91
3465.00,90.88
3464.00,90.83
3463.00,90.79
3462.00,90.78
3461.00,90.80
3460.00,90.82
3459.00,90.81
3458.00,90.77
3457.00,90.74
3456.00,90.72
3455.00,90.70
3454.00,90.68
3453.00,90.67
3452.00,90.65
3451.00,90.60
3450.00,90.50
3449.00,90.38
3448.00,90.31
3447.00,90.34
3446.00,90.42
3445.00,90.47
3444.00,90.45
3443.00,90.41
3442.00,90.40
3441.00,90.42
3440.00,90.43
3439.00,90.41
3438.00,90.37
3437.00,90.36
3436.00,90.34
3435.00,90.31
3434.00,90.28
3433.00,90.26
3432.00,90.23
3431.00,90.21
3430.00,90.20
3429.00,90.20
3428.00,90.19
3427.00,90.18
3426.00,90.18
3425.00,90.16
3424.00,90.12
3423.00,90.05
3422.00,90.01
3421.00,90.00
3420.00,90.04
3419.00,90.07
3418.00,90.09
3417.00,90.08
3416.00,90.06
3415.00,90.03
3414.00,90.02
3413.00,90.01
3412.00,90.00
3411.00,89.99
3410.00,89.98
3409.00,89.97
3408.00,89.97
3407.00,89.96
3406.00,89.95
3405.00,89.94
3404.00,89.93
3403.00,89.92
3402.00,89.92
3401.00,89.93
3400.00,89.91
3399.00,89.89
3398.00,89.88
3397.00,89.89
3396.00,89.89
3395.00,89.88
3394.00,89.86
3393.00,89.85
3392.00,89.87
3391.00,89.91
3390.00,89.92
3389.00,89.91
3388.00,89.89
3387.00,89.87
3386.00,89.86
3385.00,89.86
3384.00,89.88
3383.00,89.90
3382.00,89.91
3381.00,89.91
3380.00,89.91
3379.00,89.91
3378.00,89.91
3377.00,89.92
3376.00,89.92
3375.00,89.93
3374.00,89.93
3373.00,89.94
3372.00,89.94
3371.00,89.94
3370.00,89.94
3369.00,89.93
3368.00,89.91
3367.00,89.90
3366.00,89.90
3365.00,89.93
3364.00,89.95
3363.00,89.98
3362.00,89.99
3361.00,90.01
3360.00,90.02
3359.00,90.03
3358.00,90.03
3357.00,90.04
3356.00,90.05
3355.00,90.07
3354.00,90.08
3353.00,90.09
3352.00,90.10
3351.00,90.11
3350.00,90.12
3349.00,90.13
3348.00,90.14
3347.00,90.15
3346.00,90.16
3345.00,90.18
3344.00,90.19
3343.00,90.20
3342.00,90.21
3341.00,90.22
3340.00,90.22
3339.00,90.22
3338.00,90.23
3337.00,90.24
3336.00,90.27
3335.00,90.29
3334.00,90.31
3333.00,90.33
3332.00,90.33
3331.00,90.33
3330.00,90.34
3329.00,90.34
3328.00,90.35
3327.00,90.36
3326.00,90.37
3325.00,90.38
3324.00,90.40
3323.00,90.42
3322.00,90.44
3321.00,90.46
3320.00,90.47
3319.00,90.48
3318.00,90.48
3317.00,90.49
3316.00,90.50
3315.00,90.49
3314.00,90.50
3313.00,90.51
3312.00,90.53
3311.00,90.53
3310.00,90.53
3309.00,90.55
3308.00,90.58
3307.00,90.61
3306.00,90.63
3305.00,90.63
3304.00,90.64
3303.00,90.64
3302.00,90.66
3301.00,90.67
3300.00,90.67
3299.00,90.67
3298.00,90.68
3297.00,90.70
3296.00,90.72
3295.00,90.73
3294.00,90.72
3293.00,90.72
3292.00,90.74
3291.00,90.76
3290.00,90.78
3289.00,90.79
3288.00,90.81
3287.00,90.82
3286.00,90.84
3285.00,90.85
3284.00,90.86
3283.00,90.87
3282.00,90.88
3281.00,90.89
3280.00,90.89
3279.00,90.88
3278.00,90.87
3277.00,90.86
3276.00,90.86
3275.00,90.87
3274.00,90.90
3273.00,90.94
3272.00,90.98
3271.00,91.01
3270.00,91.03
3269.00,91.04
3268.00,91.04
3267.00,91.04
3266.00,91.05
3265.00,91.06
3264.00,91.08
3263.00,91.10
3262.00,91.11
3261.00,91.12
3260.00,91.12
3259.00,91.13
3258.00,91.14
3257.00,91.13
3256.00,91.13
3255.00,91.13
3254.00,91.16
3253.00,91.20
3252.00,91.23
3251.00,91.26
3250.00,91.27
3249.00,91.28
3248.00,91.27
3247.00,91.25
3246.00,91.24
3245.00,91.27
3244.00,91.32
3243.00,91.36
3242.00,91.39
3241.00,91.40
3240.00,91.41
3239.00,91.42
3238.00,91.43
3237.00,91.44
3236.00,91.46
3235.00,91.48
3234.00,91.49
3233.00,91.51
3232.00,91.53
3231.00,91.55
3230.00,91.57
3229.00,91.59
3228.00,91.61
3227.00,91.64
3226.00,91.67
3225.00,91.69
3224.00,91.70
3223.00,91.71
3222.00,91.70
3221.00,91.71
3220.00,91.73
3219.00,91.77
3218.00,91.81
3217.00,91.82
3216.00,91.81
3215.00,91.82
3214.00,91.85
3213.00,91.89
3212.00,91.91
3211.00,91.93
3210.00,91.95
3209.00,91.99
3208.00,92.04
3207.00,92.08
3206.00,92.11
3205.00,92.13
3204.00,92.15
3203.00,92.17
3202.00,92.19
3201.00,92.19
3200.00,92.18
3199.00,92.18
3198.00,92.20
3197.00,92.25
3196.00,92.31
3195.00,92.36
3194.00,92.39
3193.00,92.42
3192.00,92.44
3191.00,92.47
3190.00,92.49
3189.00,92.51
3188.00,92.52
3187.00,92.52
3186.00,92.54
3185.00,92.57
3184.00,92.61
3183.00,92.65
3182.00,92.67
3181.00,92.66
3180.00,92.65
3179.00,92.65
3178.00,92.69
3177.00,92.75
3176.00,92.81
3175.00,92.84
3174.00,92.86
3173.00,92.88
3172.00,92.91
3171.00,92.94
3170.00,92.97
3169.00,93.00
3168.00,93.03
3167.00,93.05
3166.00,93.08
3165.00,93.10
3164.00,93.13
3163.00,93.16
3162.00,93.18
3161.00,93.21
3160.00,93.23
3159.00,93.26
3158.00,93.29
3157.00,93.31
3156.00,93.33
3155.00,93.35
3154.00,93.37
3153.00,93.39
3152.00,93.42
3151.00,93.45
3150.00,93.48
3149.00,93.50
3148.00,93.52
3147.00,93.54
3146.00,93.56
3145.00,93.58
3144.00,93.61
3143.00,93.63
3142.00,93.65
3141.00,93.68
3140.00,93.70
3139.00,93.73
3138.00,93.76
3137.00,93.78
3136.00,93.78
3135.00,93.77
3134.00,93.77
3133.00,93.80
3132.00,93.86
3131.00,93.91
3130.00,93.93
3129.00,93.94
3128.00,93.94
3127.00,93.95
3126.00,93.97
3125.00,93.98
3124.00,93.99
3123.00,94.00
3122.00,94.03
3121.00,94.06
3120.00,94.07
3119.00,94.08
3118.00,94.09
3117.00,94.11
3116.00,94.15
3115.00,94.20
3114.00,94.24
3113.00,94.28
3112.00,94.30
3111.00,94.32
3110.00,94.34
3109.00,94.36
3108.00,94.39
3107.00,94.41
3106.00,94.43
3105.00,94.43
3104.00,94.42
3103.00,94.40
3102.00,94.41
3101.00,94.45
3100.00,94.50
3099.00,94.54
3098.00,94.55
3097.00,94.55
3096.00,94.57
3095.00,94.62
3094.00,94.66
3093.00,94.70
3092.00,94.72
3091.00,94.73
3090.00,94.74
3089.00,94.76
3088.00,94.78
3087.00,94.80
3086.00,94.82
3085.00,94.83
3084.00,94.83
3083.00,94.82
3082.00,94.82
3081.00,94.83
3080.00,94.85
3079.00,94.88
3078.00,94.93
3077.00,94.97
3076.00,95.00
3075.00,95.01
3074.00,95.03
3073.00,95.05
3072.00,95.07
3071.00,95.08
3070.00,95.08
3069.00,95.07
3068.00,95.05
3067.00,95.04
3066.00,95.05
3065.00,95.09
3064.00,95.13
3063.00,95.18
3062.00,95.21
3061.00,95.22
3060.00,95.23
3059.00,95.22
3058.00,95.22
3057.00,95.23
3056.00,95.26
3055.00,95.30
3054.00,95.33
3053.00,95.34
3052.00,95.34
3051.00,95.34
3050.00,95.35
3049.00,95.36
3048.00,95.39
3047.00,95.42
3046.00,95.43
3045.00,95.45
3044.00,95.46
3043.00,95.48
3042.00,95.49
3041.00,95.51
3040.00,95.52
3039.00,95.53
3038.00,95.54
3037.00,95.53
3036.00,95.53
3035.00,95.53
3034.00,95.52
3033.00,95.51
3032.00,95.52
3031.00,95.55
3030.00,95.60
3029.00,95.64
3028.00,95.66
3027.00,95.66
3026.00,95.66
3025.00,95.68
3024.00,95.70
3023.00,95.73
3022.00,95.75
3021.00,95.77
3020.00,95.79
3019.00,95.80
3018.00,95.81
3017.00,95.81
3016.00,95.81
3015.00,95.80
3014.00,95.80
3013.00,95.80
3012.00,95.81
3011.00,95.84
3010.00,95.86
3009.00,95.89
3008.00,95.91
3007.00,95.91
3006.00,95.91
3005.00,95.92
3004.00,95.93
3003.00,95.95
3002.00,95.97
3001.00,95.99
3000.00,96.01
2999.00,96.01
2998.00,96.02
2997.00,96.02
2996.00,96.02
2995.00,96.02
2994.00,96.03
2993.00,96.05
2992.00,96.06
2991.00,96.08
2990.00,96.08
2989.00,96.09
2988.00,96.10
2987.00,96.11
2986.00,96.13
2985.00,96.14
2984.00,96.15
2983.00,96.16
2982.00,96.17
2981.00,96.18
2980.00,96.18
2979.00,96.18
2978.00,96.19
2977.00,96.19
2976.00,96.20
2975.00,96.21
2974.00,96.22
2973.00,96.23
2972.00,96.24
2971.00,96.25
2970.00,96.26
2969.00,96.26
2968.00,96.27
2967.00,96.28
2966.00,96.29
2965.00,96.30
2964.00,96.31
2963.00,96.32
2962.00,96.33
2961.00,96.34
2960.00,96.35
2959.00,96.36
2958.00,96.36
2957.00,96.36
2956.00,96.37
2955.00,96.38
2954.00,96.38
2953.00,96.39
2952.00,96.40
2951.00,96.41
2950.00,96.43
2949.00,96.43
2948.00,96.44
2947.00,96.44
2946.00,96.45
2945.00,96.45
2944.00,96.46
2943.00,96.47
2942.00,96.48
2941.00,96.49
2940.00,96.50
2939.00,96.51
2938.00,96.53
2937.00,96.54
2936.00,96.56
2935.00,96.57
2934.00,96.58
2933.00,96.59
2932.00,96.61
2931.00,96.62
2930.00,96.63
2929.00,96.64
2928.00,96.65
2927.00,96.66
2926.00,96.68
2925.00,96.69
2924.00,96.71
2923.00,96.73
2922.00,96.74
2921.00,96.75
2920.00,96.76
2919.00,96.76
2918.00,96.77
2917.00,96.77
2916.00,96.76
2915.00,96.75
2914.00,96.74
2913.00,96.73
2912.00,96.71
2911.00,96.71
2910.00,96.70
2909.00,96.71
2908.00,96.71
2907.00,96.72
2906.00,96.71
2905.00,96.71
2904.00,96.70
2903.00,96.71
2902.00,96.71
2901.00,96.72
2900.00,96.73
2899.00,96.73
2898.00,96.73
2897.00,96.73
2896.00,96.73
2895.00,96.73
2894.00,96.74
2893.00,96.75
2892.00,96.76
2891.00,96.77
2890.00,96.77
2889.00,96.77
2888.00,96.78
2887.00,96.78
2886.00,96.79
2885.00,96.79
2884.00,96.79
2883.00,96.79
2882.00,96.80
2881.00,96.81
2880.00,96.82
2879.00,96.82
2878.00,96.82
2877.00,96.83
2876.00,96.83
2875.00,96.83
2874.00,96.83
2873.00,96.84
2872.00,96.84
2871.00,96.85
2870.00,96.85
2869.00,96.86
2868.00,96.86
2867.00,96.87
2866.00,96.87
2865.00,96.87
2864.00,96.87
2863.00,96.88
2862.00,96.89
2861.00,96.90
2860.00,96.91
2859.00,96.92
2858.00,96.93
2857.00,96.94
2856.00,96.95
2855.00,96.97
2854.00,96.99
2853.00,97.01
2852.00,97.02
2851.00,97.02
2850.00,97.02
2849.00,97.01
2848.00,97.00
2847.00,96.99
2846.00,96.98
2845.00,96.97
2844.00,96.96
2843.00,96.95
2842.00,96.95
2841.00,96.95
2840.00,96.95
2839.00,96.95
2838.00,96.95
2837.00,96.96
2836.00,96.96
2835.00,96.97
2834.00,96.99
2833.00,96.99
2832.00,97.00
2831.00,97.00
2830.00,97.00
2829.00,97.00
2828.00,97.00
2827.00,97.00
2826.00,97.00
2825.00,97.00
2824.00,97.00
2823.00,97.00
2822.00,97.01
2821.00,97.01
2820.00,97.02
2819.00,97.03
2818.00,97.03
2817.00,97.03
2816.00,97.03
2815.00,97.03
2814.00,97.03
2813.00,97.03
2812.00,97.04
2811.00,97.05
2810.00,97.05
2809.00,97.06
2808.00,97.07
2807.00,97.07
2806.00,97.07
2805.00,97.07
2804.00,97.07
2803.00,97.06
2802.00,97.06
2801.00,97.06
2800.00,97.06
2799.00,97.07
2798.00,97.08
2797.00,97.08
2796.00,97.08
2795.00,97.08
2794.00,97.08
2793.00,97.09
2792.00,97.09
2791.00,97.10
2790.00,97.11
2789.00,97.11
2788.00,97.11
2787.00,97.11
2786.00,97.11
2785.00,97.12
2784.00,97.12
2783.00,97.11
2782.00,97.11
2781.00,97.11
2780.00,97.12
2779.00,97.12
2778.00,97.13
2777.00,97.13
2776.00,97.13
2775.00,97.14
2774.00,97.14
2773.00,97.15
2772.00,97.15
2771.00,97.15
2770.00,97.14
2769.00,97.15
2768.00,97.15
2767.00,97.16
2766.00,97.16
2765.00,97.16
2764.00,97.17
2763.00,97.17
2762.00,97.17
2761.00,97.17
2760.00,97.18
2759.00,97.18
2758.00,97.18
2757.00,97.18
2756.00,97.17
2755.00,97.17
2754.00,97.18
2753.00,97.18
2752.00,97.18
2751.00,97.18
2750.00,97.19
2749.00,97.20
2748.00,97.20
2747.00,97.20
2746.00,97.20
2745.00,97.20
2744.00,97.20
2743.00,97.20
2742.00,97.19
2741.00,97.19
2740.00,97.20
2739.00,97.20
2738.00,97.21
2737.00,97.21
2736.00,97.22
2735.00,97.22
2734.00,97.22
2733.00,97.23
2732.00,97.23
2731.00,97.23
2730.00,97.23
2729.00,97.24
2728.00,97.24
2727.00,97.24
2726.00,97.23
2725.00,97.24
2724.00,97.24
2723.00,97.24
2722.00,97.24
2721.00,97.24
2720.00,97.24
2719.00,97.25
2718.00,97.25
2717.00,97.25
2716.00,97.25
2715.00,97.25
2714.00,97.26
2713.00,97.26
2712.00,97.26
2711.00,97.27
2710.00,97.27
2709.00,97.27
2708.00,97.27
2707.00,97.28
2706.00,97.28
2705.00,97.28
2704.00,97.28
2703.00,97.29
2702.00,97.29
2701.00,97.29
2700.00,97.29
2699.00,97.29
2698.00,97.29
2697.00,97.29
2696.00,97.29
2695.00,97.30
2694.00,97.30
2693.00,97.30
2692.00,97.30
2691.00,97.31
2690.00,97.31
2689.00,97.31
2688.00,97.30
2687.00,97.30
2686.00,97.30
2685.00,97.31
2684.00,97.31
2683.00,97.32
2682.00,97.32
2681.00,97.32
2680.00,97.32
2679.00,97.32
2678.00,97.32
2677.00,97.32
2676.00,97.33
2675.00,97.33
2674.00,97.33
2673.00,97.33
2672.00,97.33
2671.00,97.34
2670.00,97.34
2669.00,97.34
2668.00,97.34
2667.00,97.34
2666.00,97.34
2665.00,97.34
2664.00,97.34
2663.00,97.34
2662.00,97.34
2661.00,97.35
2660.00,97.35
2659.00,97.35
2658.00,97.35
2657.00,97.35
2656.00,97.36
2655.00,97.36
2654.00,97.36
2653.00,97.36
2652.00,97.36
2651.00,97.36
2650.00,97.37
2649.00,97.37
2648.00,97.37
2647.00,97.37
2646.00,97.37
2645.00,97.37
2644.00,97.37
2643.00,97.38
2642.00,97.38
2641.00,97.38
2640.00,97.38
2639.00,97.38
2638.00,97.38
2637.00,97.38
2636.00,97.38
2635.00,97.38
2634.00,97.39
2633.00,97.39
2632.00,97.40
2631.00,97.40
2630.00,97.40
2629.00,97.40
2628.00,97.40
2627.00,97.40
2626.00,97.40
2625.00,97.40
2624.00,97.41
2623.00,97.40
2622.00,97.40
2621.00,97.40
2620.00,97.40
2619.00,97.40
2618.00,97.40
2617.00,97.41
2616.00,97.41
2615.00,97.41
2614.00,97.41
2613.00,97.41
2612.00,97.41
2611.00,97.41
2610.00,97.42
2609.00,97.42
2608.00,97.43
2607.00,97.42
2606.00,97.42
2605.00,97.42
2604.00,97.42
2603.00,97.42
2602.00,97.43
2601.00,97.43
2600.00,97.43
2599.00,97.44
2598.00,97.44
2597.00,97.44
2596.00,97.44
2595.00,97.44
2594.00,97.43
2593.00,97.43
2592.00,97.43
2591.00,97.43
2590.00,97.43
2589.00,97.43
2588.00,97.44
2587.00,97.44
2586.00,97.44
2585.00,97.44
2584.00,97.44
2583.00,97.44
2582.00,97.44
2581.00,97.44
2580.00,97.44
2579.00,97.44
2578.00,97.44
2577.00,97.44
2576.00,97.45
2575.00,97.45
2574.00,97.46
2573.00,97.46
2572.00,97.46
2571.00,97.45
2570.00,97.45
2569.00,97.45
2568.00,97.45
2567.00,97.45
2566.00,97.45
2565.00,97.45
2564.00,97.45
2563.00,97.45
2562.00,97.45
2561.00,97.46
2560.00,97.46
2559.00,97.46
2558.00,97.47
2557.00,97.47
2556.00,97.47
2555.00,97.48
2554.00,97.48
2553.00,97.47
2552.00,97.47
2551.00,97.47
2550.00,97.47
2549.00,97.48
2548.00,97.49
2547.00,97.49
2546.00,97.49
2545.00,97.49
2544.00,97.49
2543.00,97.49
2542.00,97.48
2541.00,97.49
2540.00,97.49
2539.00,97.49
2538.00,97.49
2537.00,97.49
2536.00,97.49
2535.00,97.49
2534.00,97.49
2533.00,97.50
2532.00,97.50
2531.00,97.50
2530.00,97.50
2529.00,97.50
2528.00,97.50
2527.00,97.50
2526.00,97.50
2525.00,97.50
2524.00,97.50
2523.00,97.50
2522.00,97.50
2521.00,97.50
2520.00,97.50
2519.00,97.50
2518.00,97.50
2517.00,97.50
2516.00,97.50
2515.00,97.49
2514.00,97.50
2513.00,97.50
2512.00,97.50
2511.00,97.51
2510.00,97.51
2509.00,97.51
2508.00,97.51
2507.00,97.51
2506.00,97.51
2505.00,97.51
2504.00,97.51
2503.00,97.51
2502.00,97.52
2501.00,97.52
2500.00,97.52
2499.00,97.52
2498.00,97.52
2497.00,97.53
2496.00,97.53
2495.00,97.53
2494.00,97.53
2493.00,97.53
2492.00,97.53
2491.00,97.53
2490.00,97.53
2489.00,97.53
2488.00,97.53
2487.00,97.53
2486.00,97.54
2485.00,97.54
2484.00,97.54
2483.00,97.53
2482.00,97.53
2481.00,97.53
2480.00,97.53
2479.00,97.53
2478.00,97.53
2477.00,97.53
2476.00,97.54
2475.00,97.54
2474.00,97.53
2473.00,97.53
2472.00,97.52
2471.00,97.53
2470.00,97.53
2469.00,97.54
2468.00,97.55
2467.00,97.55
2466.00,97.55
2465.00,97.54
2464.00,97.54
2463.00,97.54
2462.00,97.54
2461.00,97.55
2460.00,97.55
2459.00,97.55
2458.00,97.54
2457.00,97.54
2456.00,97.55
2455.00,97.55
2454.00,97.56
2453.00,97.56
2452.00,97.56
2451.00,97.56
2450.00,97.55
2449.00,97.54
2448.00,97.54
2447.00,97.54
2446.00,97.54
2445.00,97.55
2444.00,97.56
2443.00,97.56
2442.00,97.56
2441.00,97.56
2440.00,97.56
2439.00,97.56
2438.00,97.55
2437.00,97.55
2436.00,97.55
2435.00,97.56
2434.00,97.56
2433.00,97.57
2432.00,97.57
2431.00,97.57
2430.00,97.56
2429.00,97.56
2428.00,97.56
2427.00,97.56
2426.00,97.56
2425.00,97.56
2424.00,97.56
2423.00,97.56
2422.00,97.56
2421.00,97.56
2420.00,97.56
2419.00,97.57
2418.00,97.57
2417.00,97.57
2416.00,97.57
2415.00,97.58
2414.00,97.58
2413.00,97.58
2412.00,97.58
2411.00,97.57
2410.00,97.57
2409.00,97.57
2408.00,97.57
2407.00,97.57
2406.00,97.57
2405.00,97.57
2404.00,97.57
2403.00,97.57
2402.00,97.57
2401.00,97.57
2400.00,97.57
2399.00,97.57
2398.00,97.57
2397.00,97.58
2396.00,97.58
2395.00,97.58
2394.00,97.57
2393.00,97.57
2392.00,97.57
2391.00,97.58
2390.00,97.58
2389.00,97.58
2388.00,97.59
2387.00,97.59
2386.00,97.60
2385.00,97.60
2384.00,97.60
2383.00,97.59
2382.00,97.58
2381.00,97.57
2380.00,97.56
2379.00,97.56
2378.00,97.55
2377.00,97.56
2376.00,97.56
2375.00,97.57
2374.00,97.57
2373.00,97.57
2372.00,97.56
2371.00,97.56
2370.00,97.56
2369.00,97.56
2368.00,97.55
2367.00,97.55
2366.00,97.54
2365.00,97.53
2364.00,97.53
2363.00,97.53
2362.00,97.56
2361.00,97.59
2360.00,97.60
2359.00,97.59
2358.00,97.58
2357.00,97.56
2356.00,97.55
2355.00,97.55
2354.00,97.53
2353.00,97.51
2352.00,97.51
2351.00,97.53
2350.00,97.54
2349.00,97.53
2348.00,97.52
2347.00,97.52
2346.00,97.53
2345.00,97.54
2344.00,97.55
2343.00,97.55
2342.00,97.56
2341.00,97.57
2340.00,97.57
2339.00,97.56
2338.00,97.55
2337.00,97.53
2336.00,97.51
2335.00,97.50
2334.00,97.49
2333.00,97.48
2332.00,97.48
2331.00,97.48
2330.00,97.49
2329.00,97.49
2328.00,97.51
2327.00,97.53
2326.00,97.54
2325.00,97.55
2324.00,97.57
2323.00,97.60
2322.00,97.62
2321.00,97.62
2320.00,97.63
2319.00,97.63
2318.00,97.62
2317.00,97.62
2316.00,97.62
2315.00,97.63
2314.00,97.63
2313.00,97.63
2312.00,97.63
2311.00,97.63
2310.00,97.62
2309.00,97.62
2308.00,97.62
2307.00,97.62
2306.00,97.62
2305.00,97.62
2304.00,97.62
2303.00,97.63
2302.00,97.63
2301.00,97.62
2300.00,97.62
2299.00,97.62
2298.00,97.61
2297.00,97.60
2296.00,97.60
2295.00,97.60
2294.00,97.60
2293.00,97.60
2292.00,97.60
2291.00,97.60
2290.00,97.60
2289.00,97.60
2288.00,97.60
2287.00,97.60
2286.00,97.61
2285.00,97.61
2284.00,97.60
2283.00,97.60
2282.00,97.60
2281.00,97.59
2280.00,97.60
2279.00,97.60
2278.00,97.60
2277.00,97.59
2276.00,97.59
2275.00,97.59
2274.00,97.59
2273.00,97.59
2272.00,97.59
2271.00,97.59
2270.00,97.59
2269.00,97.59
2268.00,97.60
2267.00,97.60
2266.00,97.60
2265.00,97.60
2264.00,97.61
2263.00,97.60
2262.00,97.60
2261.00,97.60
2260.00,97.60
2259.00,97.60
2258.00,97.60
2257.00,97.59
2256.00,97.59
2255.00,97.59
2254.00,97.59
2253.00,97.60
2252.00,97.61
2251.00,97.61
2250.00,97.61
2249.00,97.62
2248.00,97.61
2247.00,97.61
2246.00,97.61
2245.00,97.61
2244.00,97.61
2243.00,97.61
2242.00,97.61
2241.00,97.61
2240.00,97.61
2239.00,97.61
2238.00,97.62
2237.00,97.62
2236.00,97.63
2235.00,97.63
2234.00,97.62
2233.00,97.62
2232.00,97.62
2231.00,97.61
2230.00,97.61
2229.00,97.61
2228.00,97.62
2227.00,97.62
2226.00,97.61
2225.00,97.61
2224.00,97.61
2223.00,97.61
2222.00,97.61
2221.00,97.61
2220.00,97.61
2219.00,97.61
2218.00,97.61
2217.00,97.61
2216.00,97.62
2215.00,97.62
2214.00,97.61
2213.00,97.60
2212.00,97.60
2211.00,97.60
2210.00,97.60
2209.00,97.60
2208.00,97.60
2207.00,97.61
2206.00,97.61
2205.00,97.61
2204.00,97.61
2203.00,97.61
2202.00,97.60
2201.00,97.59
2200.00,97.59
2199.00,97.60
2198.00,97.60
2197.00,97.60
2196.00,97.61
2195.00,97.61
2194.00,97.61
2193.00,97.61
2192.00,97.61
2191.00,97.61
2190.00,97.61
2189.00,97.61
2188.00,97.61
2187.00,97.61
2186.00,97.61
2185.00,97.61
2184.00,97.61
2183.00,97.61
2182.00,97.60
2181.00,97.60
2180.00,97.60
2179.00,97.60
2178.00,97.60
2177.00,97.59
2176.00,97.60
2175.00,97.60
2174.00,97.60
2173.00,97.60
2172.00,97.60
2171.00,97.60
2170.00,97.60
2169.00,97.60
2168.00,97.61
2167.00,97.61
2166.00,97.61
2165.00,97.61
2164.00,97.62
2163.00,97.62
2162.00,97.62
2161.00,97.62
2160.00,97.61
2159.00,97.61
2158.00,97.60
2157.00,97.60
2156.00,97.60
2155.00,97.61
2154.00,97.61
2153.00,97.61
2152.00,97.61
2151.00,97.61
2150.00,97.61
2149.00,97.61
2148.00,97.60
2147.00,97.60
2146.00,97.60
2145.00,97.61
2144.00,97.61
2143.00,97.62
2142.00,97.62
2141.00,97.62
2140.00,97.61
2139.00,97.61
2138.00,97.61
2137.00,97.61
2136.00,97.61
2135.00,97.61
2134.00,97.61
2133.00,97.62
2132.00,97.62
2131.00,97.62
2130.00,97.62
2129.00,97.62
2128.00,97.62
2127.00,97.62
2126.00,97.62
2125.00,97.62
2124.00,97.62
2123.00,97.62
2122.00,97.62
2121.00,97.62
2120.00,97.63
2119.00,97.63
2118.00,97.63
2117.00,97.63
2116.00,97.63
2115.00,97.63
2114.00,97.63
2113.00,97.63
2112.00,97.64
2111.00,97.64
2110.00,97.63
2109.00,97.63
2108.00,97.63
2107.00,97.63
2106.00,97.63
2105.00,97.63
2104.00,97.63
2103.00,97.64
2102.00,97.64
2101.00,97.64
2100.00,97.64
2099.00,97.63
2098.00,97.63
2097.00,97.63
2096.00,97.64
2095.00,97.65
2094.00,97.65
2093.00,97.65
2092.00,97.64
2091.00,97.64
2090.00,97.64
2089.00,97.64
2088.00,97.65
2087.00,97.65
2086.00,97.65
2085.00,97.66
2084.00,97.66
2083.00,97.66
2082.00,97.66
2081.00,97.66
2080.00,97.67
2079.00,97.67
2078.00,97.66
2077.00,97.66
2076.00,97.66
2075.00,97.66
2074.00,97.66
2073.00,97.67
2072.00,97.67
2071.00,97.68
2070.00,97.68
2069.00,97.68
2068.00,97.67
2067.00,97.66
2066.00,97.65
2065.00,97.65
2064.00,97.67
2063.00,97.68
2062.00,97.67
2061.00,97.67
2060.00,97.67
2059.00,97.68
2058.00,97.69
2057.00,97.69
2056.00,97.69
2055.00,97.69
2054.00,97.69
2053.00,97.69
2052.00,97.69
2051.00,97.70
2050.00,97.69
2049.00,97.69
2048.00,97.69
2047.00,97.70
2046.00,97.69
2045.00,97.69
2044.00,97.69
2043.00,97.68
2042.00,97.67
2041.00,97.68
2040.00,97.70
2039.00,97.71
2038.00,97.71
2037.00,97.71
2036.00,97.72
2035.00,97.72
2034.00,97.72
2033.00,97.73
2032.00,97.73
2031.00,97.73
2030.00,97.73
2029.00,97.72
2028.00,97.72
2027.00,97.72
2026.00,97.72
2025.00,97.73
2024.00,97.74
2023.00,97.74
2022.00,97.74
2021.00,97.73
2020.00,97.70
2019.00,97.67
2018.00,97.65
2017.00,97.66
2016.00,97.70
2015.00,97.74
2014.00,97.75
2013.00,97.75
2012.00,97.75
2011.00,97.75
2010.00,97.74
2009.00,97.74
2008.00,97.75
2007.00,97.77
2006.00,97.77
2005.00,97.78
2004.00,97.78
2003.00,97.78
2002.00,97.77
2001.00,97.75
2000.00,97.74
1999.00,97.74
1998.00,97.75
1997.00,97.76
1996.00,97.77
1995.00,97.75
1994.00,97.71
1993.00,97.68
1992.00,97.70
1991.00,97.73
1990.00,97.74
1989.00,97.73
1988.00,97.74
1987.00,97.77
1986.00,97.79
1985.00,97.80
1984.00,97.79
1983.00,97.80
1982.00,97.80
1981.00,97.80
1980.00,97.79
1979.00,97.80
1978.00,97.80
1977.00,97.80
1976.00,97.79
1975.00,97.80
1974.00,97.81
1973.00,97.81
1972.00,97.81
1971.00,97.80
1970.00,97.77
1969.00,97.70
1968.00,97.63
1967.00,97.64
1966.00,97.71
1965.00,97.78
1964.00,97.80
1963.00,97.81
1962.00,97.80
1961.00,97.80
1960.00,97.81
1959.00,97.83
1958.00,97.83
1957.00,97.81
1956.00,97.79
1955.00,97.79
1954.00,97.82
1953.00,97.83
1952.00,97.83
1951.00,97.83
1950.00,97.83
1949.00,97.79
1948.00,97.72
1947.00,97.66
1946.00,97.62
1945.00,97.58
1944.00,97.55
1943.00,97.56
1942.00,97.65
1941.00,97.78
1940.00,97.86
1939.00,97.88
1938.00,97.87
1937.00,97.86
1936.00,97.86
1935.00,97.85
1934.00,97.85
1933.00,97.85
1932.00,97.86
1931.00,97.86
1930.00,97.86
1929.00,97.87
1928.00,97.88
1927.00,97.87
1926.00,97.82
1925.00,97.73
1924.00,97.63
1923.00,97.60
1922.00,97.69
1921.00,97.82
1920.00,97.90
1919.00,97.90
1918.00,97.88
1917.00,97.89
1916.00,97.91
1915.00,97.91
1914.00,97.89
1913.00,97.85
1912.00,97.76
1911.00,97.64
1910.00,97.57
1909.00,97.60
1908.00,97.69
1907.00,97.77
1906.00,97.80
1905.00,97.83
1904.00,97.85
1903.00,97.86
1902.00,97.87
1901.00,97.89
1900.00,97.91
1899.00,97.89
1898.00,97.83
1897.00,97.75
1896.00,97.70
1895.00,97.71
1894.00,97.79
1893.00,97.87
1892.00,97.88
1891.00,97.82
1890.00,97.78
1889.00,97.82
1888.00,97.87
1887.00,97.86
1886.00,97.81
1885.00,97.79
1884.00,97.82
1883.00,97.87
1882.00,97.90
1881.00,97.93
1880.00,97.95
1879.00,97.94
1878.00,97.92
1877.00,97.92
1876.00,97.93
1875.00,97.93
1874.00,97.92
1873.00,97.94
1872.00,97.94
1871.00,97.87
1870.00,97.68
1869.00,97.45
1868.00,97.33
1867.00,97.38
1866.00,97.57
1865.00,97.78
1864.00,97.92
1863.00,97.95
1862.00,97.93
1861.00,97.92
1860.00,97.91
1859.00,97.89
1858.00,97.88
1857.00,97.90
1856.00,97.93
1855.00,97.92
1854.00,97.91
1853.00,97.92
1852.00,97.94
1851.00,97.94
1850.00,97.90
1849.00,97.86
1848.00,97.76
1847.00,97.60
1846.00,97.44
1845.00,97.38
1844.00,97.45
1843.00,97.62
1842.00,97.83
1841.00,97.94
1840.00,97.91
1839.00,97.79
1838.00,97.71
1837.00,97.72
1836.00,97.81
1835.00,97.92
1834.00,98.01
1833.00,98.00
1832.00,97.88
1831.00,97.69
1830.00,97.54
1829.00,97.55
1828.00,97.70
1827.00,97.82
1826.00,97.84
1825.00,97.84
1824.00,97.89
1823.00,97.95
1822.00,97.96
1821.00,97.95
1820.00,97.96
1819.00,97.98
1818.00,97.97
1817.00,97.95
1816.00,97.98
1815.00,97.98
1814.00,97.87
1813.00,97.68
1812.00,97.55
1811.00,97.52
1810.00,97.57
1809.00,97.69
1808.00,97.81
1807.00,97.87
1806.00,97.89
1805.00,97.94
1804.00,98.04
1803.00,98.07
1802.00,97.95
1801.00,97.77
1800.00,97.67
1799.00,97.63
1798.00,97.58
1797.00,97.55
1796.00,97.60
1795.00,97.75
1794.00,97.97
1793.00,98.17
1792.00,98.24
1791.00,98.18
1790.00,98.09
1789.00,98.03
1788.00,98.00
1787.00,97.97
1786.00,97.94
1785.00,97.90
1784.00,97.80
1783.00,97.60
1782.00,97.34
1781.00,97.21
1780.00,97.33
1779.00,97.58
1778.00,97.74
1777.00,97.74
1776.00,97.69
1775.00,97.70
1774.00,97.77
1773.00,97.76
1772.00,97.69
1771.00,97.73
1770.00,97.86
1769.00,97.95
1768.00,97.96
1767.00,97.97
1766.00,98.00
1765.00,98.05
1764.00,98.16
1763.00,98.30
1762.00,98.34
1761.00,98.25
1760.00,98.15
1759.00,98.13
1758.00,98.16
1757.00,98.15
1756.00,98.09
1755.00,98.00
1754.00,97.89
1753.00,97.78
1752.00,97.69
1751.00,97.52
1750.00,97.20
1749.00,96.88
1748.00,96.77
1747.00,96.89
1746.00,97.06
1745.00,97.14
1744.00,97.24
1743.00,97.45
1742.00,97.66
1741.00,97.75
1740.00,97.73
1739.00,97.71
1738.00,97.66
1737.00,97.47
1736.00,97.32
1735.00,97.40
1734.00,97.39
1733.00,97.17
1732.00,97.04
1731.00,97.06
1730.00,97.19
1729.00,97.40
1728.00,97.61
1727.00,97.71
1726.00,97.68
1725.00,97.58
1724.00,97.55
1723.00,97.59
1722.00,97.60
1721.00,97.45
1720.00,97.28
1719.00,97.36
1718.00,97.66
1717.00,97.89
1716.00,97.89
1715.00,97.72
1714.00,97.54
1713.00,97.44
1712.00,97.38
1711.00,97.30
1710.00,97.19
1709.00,97.09
1708.00,97.00
1707.00,96.96
1706.00,97.12
1705.00,97.40
1704.00,97.37
1703.00,96.73
1702.00,95.92
1701.00,95.59
1700.00,95.73
1699.00,96.01
1698.00,96.20
1697.00,96.20
1696.00,96.19
1695.00,96.32
1694.00,96.70
1693.00,97.06
1692.00,97.11
1691.00,96.94
1690.00,96.84
1689.00,96.90
1688.00,96.91
1687.00,96.78
1686.00,96.79
1685.00,97.01
1684.00,97.02
1683.00,96.89
1682.00,96.88
1681.00,96.87
1680.00,96.85
1679.00,96.85
1678.00,96.81
1677.00,96.69
1676.00,96.58
1675.00,96.54
1674.00,96.57
1673.00,96.53
1672.00,96.31
1671.00,96.03
1670.00,95.88
1669.00,95.92
1668.00,96.17
1667.00,96.53
1666.00,96.77
1665.00,96.77
1664.00,96.61
1663.00,96.47
1662.00,96.46
1661.00,96.56
1660.00,96.65
1659.00,96.74
1658.00,96.83
1657.00,96.74
1656.00,96.40
1655.00,96.22
1654.00,96.31
1653.00,95.86
1652.00,95.32
1651.00,95.64
1650.00,96.13
1649.00,96.23
1648.00,96.23
1647.00,96.39
1646.00,96.48
1645.00,96.42
1644.00,96.37
1643.00,96.34
1642.00,96.28
1641.00,96.19
1640.00,96.01
1639.00,95.73
1638.00,95.48
1637.00,95.45
1636.00,95.57
1635.00,95.69
1634.00,95.94
1633.00,96.32
1632.00,96.54
1631.00,96.50
1630.00,96.31
1629.00,96.15
1628.00,96.13
1627.00,96.28
1626.00,96.47
1625.00,96.52
1624.00,96.41
1623.00,96.31
1622.00,96.44
1621.00,96.68
1620.00,96.74
1619.00,96.61
1618.00,96.51
1617.00,96.48
1616.00,96.46
1615.00,96.61
1614.00,96.88
1613.00,96.98
1612.00,96.83
1611.00,96.58
1610.00,96.42
1609.00,96.39
1608.00,96.46
1607.00,96.61
1606.00,96.76
1605.00,96.82
1604.00,96.77
1603.00,96.75
1602.00,96.84
1601.00,97.01
1600.00,97.13
1599.00,97.16
1598.00,97.13
1597.00,97.03
1596.00,96.91
1595.00,96.86
1594.00,96.96
1593.00,97.11
1592.00,97.19
1591.00,97.21
1590.00,97.27
1589.00,97.36
1588.00,97.41
1587.00,97.43
1586.00,97.47
1585.00,97.51
1584.00,97.51
1583.00,97.50
1582.00,97.56
1581.00,97.63
1580.00,97.55
1579.00,97.28
1578.00,97.05
1577.00,97.03
1576.00,97.09
1575.00,97.22
1574.00,97.53
1573.00,97.74
1572.00,97.66
1571.00,97.43
1570.00,97.27
1569.00,97.23
1568.00,97.26
1567.00,97.28
1566.00,97.27
1565.00,97.32
1564.00,97.47
1563.00,97.52
1562.00,97.44
1561.00,97.68
1560.00,98.18
1559.00,97.98
1558.00,97.36
1557.00,97.45
1556.00,98.04
1555.00,98.47
1554.00,98.49
1553.00,98.29
1552.00,98.07
1551.00,97.90
1550.00,97.84
1549.00,97.92
1548.00,98.09
1547.00,98.27
1546.00,98.36
1545.00,98.27
1544.00,98.04
1543.00,97.90
1542.00,98.08
1541.00,98.39
1540.00,98.16
1539.00,97.47
1538.00,97.22
1537.00,97.56
1536.00,97.89
1535.00,97.94
1534.00,97.85
1533.00,97.77
1532.00,97.79
1531.00,97.79
1530.00,97.73
1529.00,97.75
1528.00,97.96
1527.00,98.25
1526.00,98.40
1525.00,98.40
1524.00,98.40
1523.00,98.60
1522.00,98.88
1521.00,98.88
1520.00,98.57
1519.00,98.19
1518.00,97.85
1517.00,97.72
1516.00,97.88
1515.00,98.17
1514.00,98.38
1513.00,98.43
1512.00,98.40
1511.00,98.25
1510.00,97.93
1509.00,97.65
1508.00,97.76
1507.00,97.95
1506.00,97.72
1505.00,97.46
1504.00,97.60
1503.00,97.79
1502.00,97.79
1501.00,97.69
1500.00,97.68
1499.00,97.79
1498.00,97.94
1497.00,98.05
1496.00,98.04
1495.00,98.00
1494.00,98.00
1493.00,98.00
1492.00,98.01
1491.00,98.03
1490.00,98.02
1489.00,97.98
1488.00,97.95
1487.00,97.92
1486.00,97.91
1485.00,97.93
1484.00,97.89
1483.00,97.76
1482.00,97.65
1481.00,97.68
1480.00,97.81
1479.00,97.90
1478.00,97.89
1477.00,97.93
1476.00,98.14
1475.00,98.48
1474.00,98.76
1473.00,98.75
1472.00,98.44
1471.00,98.13
1470.00,98.01
1469.00,98.03
1468.00,98.05
1467.00,98.06
1466.00,98.06
1465.00,98.07
1464.00,98.07
1463.00,98.06
1462.00,98.01
1461.00,97.83
1460.00,97.59
1459.00,97.47
1458.00,97.53
1457.00,97.44
1456.00,97.24
1455.00,97.37
1454.00,97.67
1453.00,97.86
1452.00,97.92
1451.00,97.98
1450.00,98.04
1449.00,98.06
1448.00,98.06
1447.00,98.05
1446.00,98.02
1445.00,97.99
1444.00,97.97
1443.00,97.98
1442.00,98.01
1441.00,98.01
1440.00,97.92
1439.00,97.72
1438.00,97.54
1437.00,97.43
1436.00,97.44
1435.00,97.62
1434.00,97.82
1433.00,97.88
1432.00,97.82
1431.00,97.79
1430.00,97.80
1429.00,97.85
1428.00,97.91
1427.00,97.90
1426.00,97.76
1425.00,97.54
1424.00,97.47
1423.00,97.58
1422.00,97.65
1421.00,97.57
1420.00,97.47
1419.00,97.48
1418.00,97.61
1417.00,97.79
1416.00,97.92
1415.00,97.96
1414.00,97.94
1413.00,97.87
1412.00,97.82
1411.00,97.84
1410.00,97.91
1409.00,97.96
1408.00,97.96
1407.00,97.95
1406.00,97.93
1405.00,97.90
1404.00,97.92
1403.00,97.99
1402.00,98.05
1401.00,98.07
1400.00,98.08
1399.00,98.10
1398.00,98.15
1397.00,98.24
1396.00,98.38
1395.00,98.50
1394.00,98.47
1393.00,98.26
1392.00,98.06
1391.00,98.02
1390.00,98.13
1389.00,98.30
1388.00,98.38
1387.00,98.31
1386.00,98.15
1385.00,98.02
1384.00,97.95
1383.00,97.92
1382.00,97.90
1381.00,97.88
1380.00,97.87
1379.00,97.86
1378.00,97.82
1377.00,97.74
1376.00,97.66
1375.00,97.69
1374.00,97.83
1373.00,97.96
1372.00,97.99
1371.00,97.91
1370.00,97.82
1369.00,97.78
1368.00,97.81
1367.00,97.89
1366.00,97.97
1365.00,98.01
1364.00,98.04
1363.00,98.11
1362.00,98.21
1361.00,98.26
1360.00,98.19
1359.00,98.07
1358.00,97.96
1357.00,97.88
1356.00,97.84
1355.00,97.83
1354.00,97.85
1353.00,97.89
1352.00,97.89
1351.00,97.84
1350.00,97.80
1349.00,97.81
1348.00,97.84
1347.00,97.88
1346.00,97.90
1345.00,97.93
1344.00,97.94
1343.00,97.92
1342.00,97.89
1341.00,97.89
1340.00,97.94
1339.00,98.02
1338.00,98.09
1337.00,98.09
1336.00,98.04
1335.00,97.99
1334.00,97.95
1333.00,97.94
1332.00,97.93
1331.00,97.92
1330.00,97.92
1329.00,97.92
1328.00,97.92
1327.00,97.92
1326.00,97.93
1325.00,97.94
1324.00,97.94
1323.00,97.92
1322.00,97.88
1321.00,97.80
1320.00,97.74
1319.00,97.73
1318.00,97.81
1317.00,97.90
1316.00,97.95
1315.00,97.95
1314.00,97.94
1313.00,97.94
1312.00,97.94
1311.00,97.93
1310.00,97.92
1309.00,97.91
1308.00,97.91
1307.00,97.93
1306.00,97.95
1305.00,97.96
1304.00,97.96
1303.00,97.95
1302.00,97.95
1301.00,97.94
1300.00,97.94
1299.00,97.93
1298.00,97.94
1297.00,97.95
1296.00,97.94
1295.00,97.94
1294.00,97.94
1293.00,97.94
1292.00,97.95
1291.00,97.95
1290.00,97.96
1289.00,97.96
1288.00,97.95
1287.00,97.94
1286.00,97.94
1285.00,97.94
1284.00,97.94
1283.00,97.94
1282.00,97.96
1281.00,97.96
1280.00,97.95
1279.00,97.94
1278.00,97.94
1277.00,97.95
1276.00,97.95
1275.00,97.94
1274.00,97.92
1273.00,97.89
1272.00,97.86
1271.00,97.87
1270.00,97.90
1269.00,97.93
1268.00,97.94
1267.00,97.94
1266.00,97.94
1265.00,97.93
1264.00,97.91
1263.00,97.88
1262.00,97.86
1261.00,97.84
1260.00,97.84
1259.00,97.87
1258.00,97.90
1257.00,97.92
1256.00,97.93
1255.00,97.93
1254.00,97.95
1253.00,97.96
1252.00,97.96
1251.00,97.97
1250.00,97.97
1249.00,97.98
1248.00,97.96
1247.00,97.94
1246.00,97.93
1245.00,97.93
1244.00,97.93
1243.00,97.94
1242.00,97.96
1241.00,97.98
1240.00,97.97
1239.00,97.97
1238.00,97.97
1237.00,97.96
1236.00,97.94
1235.00,97.94
1234.00,97.94
1233.00,97.95
1232.00,97.95
1231.00,97.96
1230.00,97.96
1229.00,97.96
1228.00,97.96
1227.00,97.96
1226.00,97.98
1225.00,97.98
1224.00,97.98
1223.00,97.98
1222.00,97.98
1221.00,97.98
1220.00,97.96
1219.00,97.96
1218.00,97.96
1217.00,97.97
1216.00,97.96
1215.00,97.95
1214.00,97.95
1213.00,97.95
1212.00,97.95
1211.00,97.95
1210.00,97.97
1209.00,97.97
1208.00,97.97
1207.00,97.97
1206.00,97.96
1205.00,97.96
1204.00,97.95
1203.00,97.94
1202.00,97.95
1201.00,97.94
1200.00,97.93
1199.00,97.93
1198.00,97.93
1197.00,97.93
1196.00,97.93
1195.00,97.94
1194.00,97.95
1193.00,97.96
1192.00,97.95
1191.00,97.95
1190.00,97.94
1189.00,97.93
1188.00,97.91
1187.00,97.90
1186.00,97.91
1185.00,97.93
1184.00,97.93
1183.00,97.93
1182.00,97.94
1181.00,97.94
1180.00,97.93
1179.00,97.92
1178.00,97.91
1177.00,97.91
1176.00,97.91
1175.00,97.91
1174.00,97.92
1173.00,97.93
1172.00,97.93
1171.00,97.94
1170.00,97.94
1169.00,97.95
1168.00,97.94
1167.00,97.94
1166.00,97.93
1165.00,97.93
1164.00,97.93
1163.00,97.93
1162.00,97.94
1161.00,97.94
1160.00,97.93
1159.00,97.92
1158.00,97.92
1157.00,97.92
1156.00,97.92
1155.00,97.92
1154.00,97.92
1153.00,97.91
1152.00,97.91
1151.00,97.92
1150.00,97.93
1149.00,97.94
1148.00,97.94
1147.00,97.93
1146.00,97.92
1145.00,97.91
1144.00,97.89
1143.00,97.88
1142.00,97.89
1141.00,97.91
1140.00,97.92
1139.00,97.93
1138.00,97.93
1137.00,97.92
1136.00,97.90
1135.00,97.90
1134.00,97.92
1133.00,97.93
1132.00,97.94
1131.00,97.94
1130.00,97.93
1129.00,97.92
1128.00,97.90
1127.00,97.89
1126.00,97.90
1125.00,97.91
1124.00,97.91
1123.00,97.91
1122.00,97.92
1121.00,97.93
1120.00,97.93
1119.00,97.92
1118.00,97.92
1117.00,97.91
1116.00,97.90
1115.00,97.90
1114.00,97.90
1113.00,97.89
1112.00,97.88
1111.00,97.87
1110.00,97.87
1109.00,97.87
1108.00,97.87
1107.00,97.87
1106.00,97.88
1105.00,97.88
1104.00,97.87
1103.00,97.85
1102.00,97.84
1101.00,97.84
1100.00,97.84
1099.00,97.85
1098.00,97.86
1097.00,97.85
1096.00,97.84
1095.00,97.84
1094.00,97.85
1093.00,97.84
1092.00,97.82
1091.00,97.79
1090.00,97.78
1089.00,97.77
1088.00,97.78
1087.00,97.80
1086.00,97.83
1085.00,97.84
1084.00,97.81
1083.00,97.79
1082.00,97.78
1081.00,97.76
1080.00,97.75
1079.00,97.75
1078.00,97.78
1077.00,97.80
1076.00,97.81
1075.00,97.81
1074.00,97.81
1073.00,97.81
1072.00,97.79
1071.00,97.78
1070.00,97.79
1069.00,97.82
1068.00,97.84
1067.00,97.85
1066.00,97.86
1065.00,97.85
1064.00,97.84
1063.00,97.84
1062.00,97.85
1061.00,97.85
1060.00,97.82
1059.00,97.79
1058.00,97.78
1057.00,97.78
1056.00,97.76
1055.00,97.74
1054.00,97.74
1053.00,97.75
1052.00,97.77
1051.00,97.79
1050.00,97.80
1049.00,97.78
1048.00,97.73
1047.00,97.70
1046.00,97.70
1045.00,97.73
1044.00,97.78
1043.00,97.84
1042.00,97.90
1041.00,97.92
1040.00,97.89
1039.00,97.87
1038.00,97.89
1037.00,97.91
1036.00,97.90
1035.00,97.88
1034.00,97.85
1033.00,97.80
1032.00,97.73
1031.00,97.70
1030.00,97.72
1029.00,97.77
1028.00,97.81
1027.00,97.83
1026.00,97.83
1025.00,97.82
1024.00,97.79
1023.00,97.79
1022.00,97.82
1021.00,97.85
1020.00,97.83
1019.00,97.80
1018.00,97.82
1017.00,97.88
1016.00,97.91
1015.00,97.90
1014.00,97.87
1013.00,97.83
1012.00,97.82
1011.00,97.85
1010.00,97.90
1009.00,97.92
1008.00,97.89
1007.00,97.84
1006.00,97.81
1005.00,97.80
1004.00,97.79
1003.00,97.79
1002.00,97.80
1001.00,97.83
1000.00,97.89
999.00,97.96
998.00,98.03
997.00,98.03
996.00,97.97
995.00,97.90
994.00,97.86
993.00,97.83
992.00,97.81
991.00,97.87
990.00,97.97
989.00,98.03
988.00,97.99
987.00,97.92
986.00,97.89
985.00,97.87
984.00,97.83
983.00,97.79
982.00,97.76
981.00,97.69
980.00,97.59
979.00,97.57
978.00,97.65
977.00,97.77
976.00,97.84
975.00,97.86
974.00,97.86
973.00,97.85
972.00,97.84
971.00,97.86
970.00,97.92
969.00,97.92
968.00,97.82
967.00,97.68
966.00,97.58
965.00,97.52
964.00,97.53
963.00,97.65
962.00,97.84
961.00,97.98
960.00,97.99
959.00,97.97
958.00,98.01
957.00,98.07
956.00,98.08
955.00,98.09
954.00,98.13
953.00,98.14
952.00,98.09
951.00,98.10
950.00,98.21
949.00,98.29
948.00,98.27
947.00,98.21
946.00,98.21
945.00,98.11
944.00,97.83
943.00,97.53
942.00,97.43
941.00,97.47
940.00,97.39
939.00,97.08
938.00,96.67
937.00,96.37
936.00,96.47
935.00,97.12
934.00,98.04
933.00,98.63
932.00,98.61
931.00,98.24
930.00,97.95
929.00,97.75
928.00,97.48
927.00,97.17
926.00,96.89
925.00,96.59
924.00,96.34
923.00,96.47
922.00,97.00
921.00,97.48
920.00,97.68
919.00,97.81
918.00,98.00
917.00,97.95
916.00,97.36
915.00,96.60
914.00,96.17
913.00,95.97
912.00,95.87
911.00,95.99
910.00,96.12
909.00,95.67
908.00,94.97
907.00,95.32
906.00,97.04
905.00,98.79
904.00,99.04
903.00,98.14
902.00,97.95
901.00,98.66
900.00,98.72
899.00,97.33
898.00,95.08
897.00,91.87
896.00,87.59
895.00,84.14
894.00,83.51
893.00,84.44
892.00,86.84
891.00,92.41
890.00,98.34
889.00,103.56
888.00,105.60
887.00,100.29
886.00,95.72
885.00,94.92
884.00,93.73
883.00,93.76
882.00,95.40
881.00,96.60
880.00,96.61
879.00,91.74
878.00,90.41
877.00,96.99
876.00,108.87
875.00,117.57
874.00,117.62
873.00,130.91
872.00,148.65
871.00,129.93
870.00,122.46
869.00,143.92
868.00,179.56
867.00,171.43
866.00,130.52
865.00,130.42
864.00,123.95
863.00,88.62
862.00,78.20
861.00,78.34
860.00,76.45
859.00,65.73
858.00,94.26
857.00,132.70
856.00,94.87
855.00,107.06
854.00,120.14
853.00,72.60
852.00,72.97
851.00,51.17
850.00,160.49
849.00,299.14
848.00,67.62
847.00,23.27
846.00,29.66
845.00,106.78
844.00,139.84
843.00,145.07
842.00,63.35
841.00,90.87
840.00,90.46
839.00,43.17
838.00,21.17
837.00,58.20
836.00,221.21
835.00,105.83
834.00,30.96
833.00,148.29
832.00,280.11
831.00,134.81
830.00,1.23
829.00,80.94
828.00,547.82
827.00,197.16
826.00,56.24
825.00,361.02
824.00,210.82
823.00,141.82
822.00,42.15
821.00,51.55
820.00,95.53
819.00,141.16
818.00,61.00
817.00,248.56
816.00,585.55
815.00,190.25
814.00,38.48
813.00,241.26
812.00,333.78
811.00,178.81
810.00,100.33
809.00,169.49
808.00,203.46
807.00,57.44
806.00,32.16
805.00,64.08
804.00,86.34
803.00,60.06
802.00,23.33
801.00,31.86
800.00,46.56
799.00,54.00
798.00,61.27
797.00,120.04
796.00,320.04
795.00,128.37
794.00,13.79
793.00,89.20
792.00,285.85
791.00,103.50
790.00,28.58
789.00,122.19
788.00,250.55
787.00,258.42
786.00,89.11
785.00,263.57
784.00,283.58
783.00,153.14
782.00,80.22
781.00,178.02
780.00,145.47
779.00,114.81
778.00,55.01
777.00,86.67
776.00,172.29
775.00,111.71
774.00,98.01
773.00,464.22
772.00,222.20
771.00,320.74
770.00,125.12
769.00,382.69
768.00,614.33
767.00,453.14
766.00,169.49
765.00,118.86
764.00,124.41
763.00,77.76
762.00,58.84
761.00,181.47
760.00,227.89
759.00,266.69
758.00,265.43
757.00,240.81
756.00,136.14
755.00,60.58
754.00,15.40
753.00,57.63
752.00,105.97
751.00,72.28
750.00,23.20
749.00,110.90
748.00,177.33
747.00,79.69
746.00,75.27
745.00,216.23
744.00,122.96
743.00,125.57
742.00,127.10
741.00,221.63
740.00,262.48
739.00,332.64
738.00,118.91
737.00,372.24
736.00,231.61
735.00,225.48
734.00,173.80
733.00,138.14
732.00,148.05
731.00,216.54
730.00,60.72
729.00,84.32
728.00,360.29
727.00,233.51
726.00,34.44
725.00,257.49
724.00,204.51
723.00,105.86
722.00,28.06
721.00,169.44
720.00,694.07
719.00,485.99
718.00,192.03
717.00,587.05
716.00,173.94
715.00,133.80
714.00,80.43
713.00,162.68
712.00,174.48
711.00,96.19
710.00,16.20
709.00,91.96
708.00,324.37
707.00,101.01
706.00,26.96
705.00,45.24
704.00,65.98
703.00,73.66
702.00,59.02
701.00,99.10
700.00,114.81
699.00,101.58
698.00,75.19
697.00,74.77
696.00,124.11
695.00,319.71
694.00,164.72
693.00,231.75
692.00,409.65
691.00,148.89
690.00,53.58
689.00,78.85
688.00,61.10
687.00,30.53
686.00,6.23
685.00,103.96
684.00,303.39
683.00,181.22
682.00,59.12
681.00,136.42
680.00,147.69
679.00,85.26
678.00,51.62
677.00,166.56
676.00,234.01
675.00,274.44
674.00,161.99
673.00,161.15
672.00,145.77
671.00,127.85
670.00,66.67
669.00,41.68
668.00,82.28
667.00,206.40
666.00,74.67
665.00,275.73
664.00,210.36
663.00,194.49
662.00,147.05
661.00,179.69
660.00,100.78
659.00,73.78
658.00,500.18
657.00,250.31
656.00,152.94
655.00,135.13
654.00,88.72
653.00,169.09
652.00,104.06
651.00,81.91
650.00,77.63
649.00,119.93
648.00,116.85
647.00,60.77
646.00,27.65
645.00,74.38
644.00,175.69
643.00,213.36
642.00,50.50
641.00,93.27
640.00,202.89
639.00,52.91
638.00,6.80
637.00,89.00
636.00,222.42
635.00,127.52
634.00,59.94
633.00,204.01
632.00,155.95
631.00,63.11
630.00,24.58
629.00,82.20
628.00,167.55
627.00,62.65
626.00,43.50
625.00,50.45
624.00,86.62
623.00,35.60
622.00,54.93
621.00,271.77
620.00,179.68
619.00,86.85
618.00,9.90
617.00,59.61
616.00,113.32
615.00,86.51
614.00,26.71
613.00,154.63
612.00,276.14
611.00,209.04
610.00,214.91
609.00,150.11
608.00,161.25
607.00,70.04
606.00,9.39
605.00,46.60
604.00,205.52
603.00,98.55
602.00,21.28
601.00,87.91
600.00,95.77
599.00,24.51
598.00,13.32
597.00,39.29
596.00,101.62
595.00,108.62
594.00,31.35
593.00,140.42
592.00,145.78
591.00,264.67
590.00,38.95
589.00,114.67
588.00,281.74
587.00,113.48
586.00,27.30
585.00,55.07
584.00,141.10
583.00,144.03
582.00,92.69
581.00,112.32
580.00,105.96
579.00,25.63
578.00,46.23
577.00,103.22
576.00,251.72
575.00,647.37
574.00,89.69
573.00,419.09
572.00,1636.28
571.00,168.48
570.00,-20.12
569.00,68.23
568.00,763.99
567.00,56.80
566.00,18.08
565.00,157.80
564.00,275.46
563.00,170.08
562.00,114.86
561.00,727.88
560.00,200.58
559.00,114.90
558.00,150.50
557.00,60.75
556.00,100.11
555.00,131.26
554.00,41.39
553.00,77.82
552.00,104.66
551.00,81.59
550.00,35.38
549.00,150.83
548.00,160.86
547.00,166.70
546.00,34.93
545.00,115.65
544.00,190.39
543.00,55.80
542.00,18.49
541.00,23.64
540.00,116.56
539.00,69.32
538.00,38.16
537.00,182.39
536.00,157.40
535.00,144.80
534.00,79.70
533.00,180.11
532.00,192.37
531.00,146.97
530.00,25.40
529.00,88.54
528.00,369.55
527.00,105.66
526.00,12.81
525.00,56.97
524.00,72.20
523.00,63.58
522.00,54.59
521.00,138.20
520.00,330.21
519.00,103.34
518.00,0.88
517.00,71.83
516.00,144.07
515.00,56.21
514.00,17.42
513.00,94.40
512.00,160.71
511.00,89.06
510.00,50.93
509.00,195.60
508.00,116.71
507.00,156.13
506.00,19.63
505.00,123.51
504.00,195.54
503.00,42.82
502.00,154.15
501.00,42.21
500.00,53.77
499.00,38.53
498.00,10.27
497.00,42.69
496.00,119.67
495.00,197.15
494.00,213.05
493.00,262.60
492.00,190.92
491.00,368.49
490.00,72.14
489.00,269.50
488.00,243.67
487.00,244.87
486.00,102.65
485.00,137.89
484.00,102.29
483.00,97.46
482.00,315.51
481.00,64.50
480.00,68.71
479.00,109.94
478.00,146.65
477.00,160.39
476.00,136.66
475.00,71.42
474.00,19.46
473.00,89.04
472.00,342.17
471.00,128.48
470.00,5.52
469.00,82.45
468.00,522.18
467.00,76.78
466.00,18.46
465.00,79.75
464.00,164.86
463.00,96.33
462.00,32.13
461.00,230.58
460.00,477.49
459.00,128.76
458.00,-1.50
457.00,62.16
456.00,135.67
455.00,40.11
454.00,28.96
453.00,57.37
452.00,140.23
451.00,153.25
450.00,80.49
