Created as New Dataset,Sample 001 By Administrator Date Monday, October 13 2025
cm-1,%T
4000.00,92.77
3999.00,92.76
3998.00,92.77
3997.00,92.77
3996.00,92.77
3995.00,92.77
3994.00,92.77
3993.00,92.76
3992.00,92.75
3991.00,92.75
3990.00,92.76
3989.00,92.77
3988.00,92.78
3987.00,92.79
3986.00,92.79
3985.00,92.79
3984.00,92.78
3983.00,92.78
3982.00,92.77
3981.00,92.76
3980.00,92.76
3979.00,92.77
3978.00,92.78
3977.00,92.79
3976.00,92.79
3975.00,92.78
3974.00,92.78
3973.00,92.78
3972.00,92.78
3971.00,92.78
3970.00,92.78
3969.00,92.77
3968.00,92.76
3967.00,92.77
3966.00,92.77
3965.00,92.78
3964.00,92.79
3963.00,92.79
3962.00,92.78
3961.00,92.77
3960.00,92.77
3959.00,92.77
3958.00,92.78
3957.00,92.78
3956.00,92.78
3955.00,92.78
3954.00,92.77
3953.00,92.76
3952.00,92.75
3951.00,92.75
3950.00,92.75
3949.00,92.76
3948.00,92.77
3947.00,92.77
3946.00,92.76
3945.00,92.76
3944.00,92.75
3943.00,92.75
3942.00,92.75
3941.00,92.75
3940.00,92.75
3939.00,92.75
3938.00,92.76
3937.00,92.76
3936.00,92.76
3935.00,92.76
3934.00,92.76
3933.00,92.77
3932.00,92.77
3931.00,92.77
3930.00,92.77
3929.00,92.78
3928.00,92.78
3927.00,92.78
3926.00,92.78
3925.00,92.78
3924.00,92.79
3923.00,92.78
3922.00,92.77
3921.00,92.77
3920.00,92.77
3919.00,92.77
3918.00,92.76
3917.00,92.76
3916.00,92.76
3915.00,92.77
3914.00,92.78
3913.00,92.78
3912.00,92.79
3911.00,92.79
3910.00,92.78
3909.00,92.76
3908.00,92.73
3907.00,92.71
3906.00,92.69
3905.00,92.70
3904.00,92.73
3903.00,92.76
3902.00,92.76
3901.00,92.75
3900.00,92.74
3899.00,92.74
3898.00,92.76
3897.00,92.78
3896.00,92.79
3895.00,92.81
3894.00,92.83
3893.00,92.83
3892.00,92.80
3891.00,92.78
3890.00,92.78
3889.00,92.80
3888.00,92.84
3887.00,92.88
3886.00,92.88
3885.00,92.84
3884.00,92.80
3883.00,92.78
3882.00,92.77
3881.00,92.77
3880.00,92.76
3879.00,92.75
3878.00,92.77
3877.00,92.80
3876.00,92.82
3875.00,92.85
3874.00,92.89
3873.00,92.94
3872.00,93.00
3871.00,93.02
3870.00,93.00
3869.00,92.95
3868.00,92.91
3867.00,92.90
3866.00,92.95
3865.00,93.00
3864.00,92.98
3863.00,92.93
3862.00,92.90
3861.00,92.89
3860.00,92.88
3859.00,92.81
3858.00,92.67
3857.00,92.50
3856.00,92.41
3855.00,92.50
3854.00,92.68
3853.00,92.82
3852.00,92.92
3851.00,92.97
3850.00,92.97
3849.00,92.95
3848.00,92.93
3847.00,92.91
3846.00,92.90
3845.00,92.90
3844.00,92.91
3843.00,92.93
3842.00,92.95
3841.00,92.98
3840.00,92.99
3839.00,93.00
3838.00,92.98
3837.00,92.94
3836.00,92.92
3835.00,92.91
3834.00,92.90
3833.00,92.87
3832.00,92.85
3831.00,92.85
3830.00,92.88
3829.00,92.90
3828.00,92.91
3827.00,92.91
3826.00,92.91
3825.00,92.92
3824.00,92.94
3823.00,92.99
3822.00,93.02
3821.00,92.99
3820.00,92.97
3819.00,92.98
3818.00,93.01
3817.00,93.02
3816.00,92.98
3815.00,92.92
3814.00,92.88
3813.00,92.85
3812.00,92.84
3811.00,92.84
3810.00,92.83
3809.00,92.81
3808.00,92.79
3807.00,92.80
3806.00,92.83
3805.00,92.84
3804.00,92.83
3803.00,92.84
3802.00,92.84
3801.00,92.82
3800.00,92.84
3799.00,92.89
3798.00,92.92
3797.00,92.91
3796.00,92.87
3795.00,92.83
3794.00,92.80
3793.00,92.79
3792.00,92.79
3791.00,92.79
3790.00,92.79
3789.00,92.79
3788.00,92.80
3787.00,92.83
3786.00,92.85
3785.00,92.85
3784.00,92.85
3783.00,92.84
3782.00,92.84
3781.00,92.84
3780.00,92.84
3779.00,92.83
3778.00,92.82
3777.00,92.80
3776.00,92.79
3775.00,92.80
3774.00,92.81
3773.00,92.81
3772.00,92.80
3771.00,92.82
3770.00,92.82
3769.00,92.82
3768.00,92.81
3767.00,92.83
3766.00,92.84
3765.00,92.83
3764.00,92.81
3763.00,92.80
3762.00,92.78
3761.00,92.75
3760.00,92.69
3759.00,92.58
3758.00,92.40
3757.00,92.16
3756.00,91.85
3755.00,91.46
3754.00,90.90
3753.00,90.01
3752.00,88.61
3751.00,86.65
3750.00,84.35
3749.00,82.00
3748.00,79.64
3747.00,77.02
3746.00,73.93
3745.00,70.57
3744.00,67.51
3743.00,64.89
3742.00,62.27
3741.00,59.44
3740.00,56.73
3739.00,54.56
3738.00,52.89
3737.00,51.55
3736.00,50.60
3735.00,50.10
3734.00,49.65
3733.00,48.78
3732.00,47.56
3731.00,46.52
3730.00,46.05
3729.00,46.22
3728.00,46.90
3727.00,47.93
3726.00,49.09
3725.00,50.24
3724.00,51.35
3723.00,52.52
3722.00,53.87
3721.00,55.43
3720.00,57.48
3719.00,60.68
3718.00,65.41
3717.00,70.84
3716.00,74.41
3715.00,73.77
3714.00,68.92
3713.00,62.62
3712.00,57.80
3711.00,55.33
3710.00,54.41
3709.00,53.96
3708.00,53.71
3707.00,53.65
3706.00,53.92
3705.00,54.60
3704.00,55.72
3703.00,57.09
3702.00,58.40
3701.00,59.48
3700.00,60.40
3699.00,61.36
3698.00,62.33
3697.00,63.30
3696.00,64.16
3695.00,64.98
3694.00,65.81
3693.00,66.94
3692.00,68.56
3691.00,70.56
3690.00,72.51
3689.00,73.77
3688.00,74.38
3687.00,74.71
3686.00,75.29
3685.00,76.16
3684.00,77.22
3683.00,78.22
3682.00,79.10
3681.00,79.90
3680.00,80.60
3679.00,81.19
3678.00,81.76
3677.00,82.54
3676.00,83.55
3675.00,84.59
3674.00,85.44
3673.00,86.10
3672.00,86.69
3671.00,87.29
3670.00,87.81
3669.00,88.25
3668.00,88.66
3667.00,89.06
3666.00,89.43
3665.00,89.74
3664.00,89.99
3663.00,90.18
3662.00,90.32
3661.00,90.41
3660.00,90.47
3659.00,90.46
3658.00,90.41
3657.00,90.32
3656.00,90.21
3655.00,90.08
3654.00,89.93
3653.00,89.71
3652.00,89.39
3651.00,88.89
3650.00,88.11
3649.00,87.08
3648.00,85.87
3647.00,84.51
3646.00,82.99
3645.00,81.35
3644.00,79.65
3643.00,77.91
3642.00,76.14
3641.00,74.39
3640.00,72.73
3639.00,71.19
3638.00,69.72
3637.00,68.22
3636.00,66.68
3635.00,65.14
3634.00,63.71
3633.00,62.41
3632.00,61.16
3631.00,59.88
3630.00,58.72
3629.00,57.89
3628.00,57.44
3627.00,57.20
3626.00,57.07
3625.00,57.15
3624.00,57.71
3623.00,58.96
3622.00,60.76
3621.00,62.63
3620.00,64.11
3619.00,65.26
3618.00,66.84
3617.00,69.80
3616.00,74.45
3615.00,79.64
3614.00,82.93
3613.00,82.34
3612.00,78.17
3611.00,72.67
3610.00,68.06
3609.00,65.16
3608.00,63.63
3607.00,62.78
3606.00,62.19
3605.00,61.65
3604.00,61.10
3603.00,60.67
3602.00,60.50
3601.00,60.63
3600.00,60.87
3599.00,61.06
3598.00,61.22
3597.00,61.49
3596.00,61.88
3595.00,62.38
3594.00,63.01
3593.00,63.89
3592.00,65.03
3591.00,66.34
3590.00,67.71
3589.00,69.00
3588.00,70.19
3587.00,71.32
3586.00,72.63
3585.00,74.17
3584.00,75.79
3583.00,77.23
3582.00,78.29
3581.00,79.06
3580.00,79.60
3579.00,79.92
3578.00,79.98
3577.00,79.90
3576.00,79.82
3575.00,79.90
3574.00,80.12
3573.00,80.42
3572.00,80.71
3571.00,80.98
3570.00,81.23
3569.00,81.54
3568.00,81.90
3567.00,82.28
3566.00,82.71
3565.00,83.20
3564.00,83.74
3563.00,84.26
3562.00,84.73
3561.00,85.17
3560.00,85.59
3559.00,86.02
3558.00,86.46
3557.00,86.90
3556.00,87.32
3555.00,87.69
3554.00,88.03
3553.00,88.34
3552.00,88.66
3551.00,88.95
3550.00,89.20
3549.00,89.43
3548.00,89.64
3547.00,89.83
3546.00,90.00
3545.00,90.16
3544.00,90.31
3543.00,90.45
3542.00,90.58
3541.00,90.72
3540.00,90.86
3539.00,90.99
3538.00,91.12
3537.00,91.26
3536.00,91.40
3535.00,91.54
3534.00,91.68
3533.00,91.83
3532.00,91.98
3531.00,92.12
3530.00,92.23
3529.00,92.32
3528.00,92.36
3527.00,92.34
3526.00,92.28
3525.00,92.23
3524.00,92.17
3523.00,92.13
3522.00,92.08
3521.00,92.05
3520.00,92.04
3519.00,92.02
3518.00,92.01
3517.00,92.01
3516.00,92.01
3515.00,92.02
3514.00,92.03
3513.00,92.06
3512.00,92.10
3511.00,92.13
3510.00,92.17
3509.00,92.21
3508.00,92.25
3507.00,92.30
3506.00,92.35
3505.00,92.40
3504.00,92.44
3503.00,92.46
3502.00,92.48
3501.00,92.51
3500.00,92.55
3499.00,92.58
3498.00,92.61
3497.00,92.63
3496.00,92.64
3495.00,92.64
3494.00,92.64
3493.00,92.65
3492.00,92.67
3491.00,92.68
3490.00,92.70
3489.00,92.71
3488.00,92.72
3487.00,92.72
3486.00,92.72
3485.00,92.74
3484.00,92.76
3483.00,92.76
3482.00,92.76
3481.00,92.76
3480.00,92.76
3479.00,92.76
3478.00,92.76
3477.00,92.76
3476.00,92.77
3475.00,92.77
3474.00,92.77
3473.00,92.77
3472.00,92.78
3471.00,92.78
3470.00,92.78
3469.00,92.78
3468.00,92.79
3467.00,92.79
3466.00,92.79
3465.00,92.80
3464.00,92.80
3463.00,92.79
3462.00,92.78
3461.00,92.79
3460.00,92.79
3459.00,92.79
3458.00,92.79
3457.00,92.79
3456.00,92.80
3455.00,92.80
3454.00,92.81
3453.00,92.81
3452.00,92.81
3451.00,92.80
3450.00,92.80
3449.00,92.81
3448.00,92.82
3447.00,92.83
3446.00,92.82
3445.00,92.83
3444.00,92.83
3443.00,92.83
3442.00,92.83
3441.00,92.83
3440.00,92.83
3439.00,92.82
3438.00,92.82
3437.00,92.82
3436.00,92.82
3435.00,92.81
3434.00,92.81
3433.00,92.81
3432.00,92.81
3431.00,92.80
3430.00,92.80
3429.00,92.80
3428.00,92.81
3427.00,92.81
3426.00,92.81
3425.00,92.81
3424.00,92.81
3423.00,92.82
3422.00,92.82
3421.00,92.82
3420.00,92.81
3419.00,92.81
3418.00,92.80
3417.00,92.81
3416.00,92.81
3415.00,92.81
3414.00,92.80
3413.00,92.81
3412.00,92.81
3411.00,92.81
3410.00,92.81
3409.00,92.82
3408.00,92.82
3407.00,92.81
3406.00,92.81
3405.00,92.81
3404.00,92.81
3403.00,92.81
3402.00,92.80
3401.00,92.80
3400.00,92.80
3399.00,92.80
3398.00,92.80
3397.00,92.80
3396.00,92.81
3395.00,92.82
3394.00,92.82
3393.00,92.82
3392.00,92.82
3391.00,92.82
3390.00,92.81
3389.00,92.81
3388.00,92.80
3387.00,92.80
3386.00,92.80
3385.00,92.81
3384.00,92.81
3383.00,92.81
3382.00,92.81
3381.00,92.80
3380.00,92.80
3379.00,92.80
3378.00,92.79
3377.00,92.80
3376.00,92.80
3375.00,92.80
3374.00,92.80
3373.00,92.80
3372.00,92.80
3371.00,92.79
3370.00,92.79
3369.00,92.78
3368.00,92.78
3367.00,92.78
3366.00,92.78
3365.00,92.78
3364.00,92.79
3363.00,92.78
3362.00,92.78
3361.00,92.77
3360.00,92.77
3359.00,92.77
3358.00,92.77
3357.00,92.78
3356.00,92.79
3355.00,92.80
3354.00,92.79
3353.00,92.80
3352.00,92.80
3351.00,92.80
3350.00,92.80
3349.00,92.80
3348.00,92.80
3347.00,92.79
3346.00,92.79
3345.00,92.80
3344.00,92.80
3343.00,92.80
3342.00,92.79
3341.00,92.80
3340.00,92.80
3339.00,92.80
3338.00,92.80
3337.00,92.81
3336.00,92.81
3335.00,92.81
3334.00,92.81
3333.00,92.81
3332.00,92.82
3331.00,92.81
3330.00,92.81
3329.00,92.80
3328.00,92.80
3327.00,92.80
3326.00,92.80
3325.00,92.81
3324.00,92.82
3323.00,92.81
3322.00,92.80
3321.00,92.80
3320.00,92.80
3319.00,92.80
3318.00,92.80
3317.00,92.81
3316.00,92.81
3315.00,92.81
3314.00,92.81
3313.00,92.80
3312.00,92.80
3311.00,92.80
3310.00,92.80
3309.00,92.80
3308.00,92.79
3307.00,92.79
3306.00,92.79
3305.00,92.79
3304.00,92.79
3303.00,92.79
3302.00,92.80
3301.00,92.80
3300.00,92.81
3299.00,92.81
3298.00,92.81
3297.00,92.80
3296.00,92.80
3295.00,92.79
3294.00,92.80
3293.00,92.81
3292.00,92.82
3291.00,92.81
3290.00,92.79
3289.00,92.78
3288.00,92.78
3287.00,92.78
3286.00,92.78
3285.00,92.79
3284.00,92.80
3283.00,92.81
3282.00,92.80
3281.00,92.80
3280.00,92.81
3279.00,92.81
3278.00,92.81
3277.00,92.81
3276.00,92.81
3275.00,92.81
3274.00,92.81
3273.00,92.81
3272.00,92.81
3271.00,92.81
3270.00,92.80
3269.00,92.79
3268.00,92.79
3267.00,92.78
3266.00,92.78
3265.00,92.79
3264.00,92.79
3263.00,92.80
3262.00,92.80
3261.00,92.81
3260.00,92.81
3259.00,92.80
3258.00,92.80
3257.00,92.80
3256.00,92.81
3255.00,92.81
3254.00,92.81
3253.00,92.81
3252.00,92.81
3251.00,92.80
3250.00,92.80
3249.00,92.80
3248.00,92.80
3247.00,92.80
3246.00,92.81
3245.00,92.81
3244.00,92.81
3243.00,92.81
3242.00,92.81
3241.00,92.81
3240.00,92.81
3239.00,92.80
3238.00,92.80
3237.00,92.80
3236.00,92.80
3235.00,92.80
3234.00,92.80
3233.00,92.81
3232.00,92.81
3231.00,92.80
3230.00,92.80
3229.00,92.80
3228.00,92.80
3227.00,92.80
3226.00,92.80
3225.00,92.80
3224.00,92.80
3223.00,92.80
3222.00,92.80
3221.00,92.80
3220.00,92.80
3219.00,92.79
3218.00,92.79
3217.00,92.80
3216.00,92.81
3215.00,92.82
3214.00,92.81
3213.00,92.81
3212.00,92.80
3211.00,92.80
3210.00,92.79
3209.00,92.80
3208.00,92.80
3207.00,92.79
3206.00,92.79
3205.00,92.79
3204.00,92.79
3203.00,92.79
3202.00,92.80
3201.00,92.81
3200.00,92.81
3199.00,92.81
3198.00,92.81
3197.00,92.81
3196.00,92.80
3195.00,92.79
3194.00,92.79
3193.00,92.80
3192.00,92.80
3191.00,92.80
3190.00,92.79
3189.00,92.79
3188.00,92.79
3187.00,92.79
3186.00,92.80
3185.00,92.80
3184.00,92.80
3183.00,92.79
3182.00,92.79
3181.00,92.79
3180.00,92.79
3179.00,92.80
3178.00,92.80
3177.00,92.80
3176.00,92.79
3175.00,92.79
3174.00,92.79
3173.00,92.80
3172.00,92.80
3171.00,92.79
3170.00,92.79
3169.00,92.79
3168.00,92.79
3167.00,92.80
3166.00,92.80
3165.00,92.80
3164.00,92.79
3163.00,92.78
3162.00,92.78
3161.00,92.79
3160.00,92.79
3159.00,92.79
3158.00,92.79
3157.00,92.79
3156.00,92.80
3155.00,92.80
3154.00,92.80
3153.00,92.80
3152.00,92.80
3151.00,92.79
3150.00,92.79
3149.00,92.79
3148.00,92.80
3147.00,92.80
3146.00,92.80
3145.00,92.80
3144.00,92.80
3143.00,92.80
3142.00,92.80
3141.00,92.80
3140.00,92.80
3139.00,92.79
3138.00,92.80
3137.00,92.80
3136.00,92.81
3135.00,92.81
3134.00,92.81
3133.00,92.80
3132.00,92.80
3131.00,92.80
3130.00,92.80
3129.00,92.81
3128.00,92.82
3127.00,92.82
3126.00,92.82
3125.00,92.82
3124.00,92.82
3123.00,92.82
3122.00,92.82
3121.00,92.81
3120.00,92.81
3119.00,92.80
3118.00,92.81
3117.00,92.81
3116.00,92.81
3115.00,92.81
3114.00,92.81
3113.00,92.80
3112.00,92.80
3111.00,92.80
3110.00,92.80
3109.00,92.81
3108.00,92.81
3107.00,92.81
3106.00,92.81
3105.00,92.81
3104.00,92.81
3103.00,92.81
3102.00,92.81
3101.00,92.81
3100.00,92.81
3099.00,92.81
3098.00,92.81
3097.00,92.82
3096.00,92.82
3095.00,92.82
3094.00,92.81
3093.00,92.80
3092.00,92.79
3091.00,92.78
3090.00,92.78
3089.00,92.78
3088.00,92.78
3087.00,92.79
3086.00,92.79
3085.00,92.80
3084.00,92.80
3083.00,92.80
3082.00,92.81
3081.00,92.81
3080.00,92.82
3079.00,92.82
3078.00,92.81
3077.00,92.81
3076.00,92.80
3075.00,92.80
3074.00,92.80
3073.00,92.80
3072.00,92.81
3071.00,92.80
3070.00,92.80
3069.00,92.80
3068.00,92.81
3067.00,92.81
3066.00,92.81
3065.00,92.82
3064.00,92.82
3063.00,92.82
3062.00,92.81
3061.00,92.82
3060.00,92.82
3059.00,92.82
3058.00,92.82
3057.00,92.83
3056.00,92.82
3055.00,92.82
3054.00,92.81
3053.00,92.81
3052.00,92.81
3051.00,92.80
3050.00,92.79
3049.00,92.79
3048.00,92.80
3047.00,92.81
3046.00,92.82
3045.00,92.82
3044.00,92.82
3043.00,92.82
3042.00,92.82
3041.00,92.82
3040.00,92.82
3039.00,92.81
3038.00,92.81
3037.00,92.82
3036.00,92.82
3035.00,92.83
3034.00,92.83
3033.00,92.83
3032.00,92.83
3031.00,92.82
3030.00,92.82
3029.00,92.82
3028.00,92.82
3027.00,92.82
3026.00,92.82
3025.00,92.82
3024.00,92.82
3023.00,92.83
3022.00,92.83
3021.00,92.83
3020.00,92.83
3019.00,92.84
3018.00,92.84
3017.00,92.84
3016.00,92.84
3015.00,92.84
3014.00,92.84
3013.00,92.84
3012.00,92.84
3011.00,92.83
3010.00,92.83
3009.00,92.82
3008.00,92.82
3007.00,92.82
3006.00,92.83
3005.00,92.83
3004.00,92.83
3003.00,92.83
3002.00,92.83
3001.00,92.83
3000.00,92.83
2999.00,92.83
2998.00,92.83
2997.00,92.83
2996.00,92.83
2995.00,92.83
2994.00,92.82
2993.00,92.83
2992.00,92.83
2991.00,92.83
2990.00,92.84
2989.00,92.85
2988.00,92.85
2987.00,92.85
2986.00,92.84
2985.00,92.84
2984.00,92.84
2983.00,92.85
2982.00,92.85
2981.00,92.86
2980.00,92.86
2979.00,92.86
2978.00,92.86
2977.00,92.86
2976.00,92.86
2975.00,92.86
2974.00,92.87
2973.00,92.87
2972.00,92.87
2971.00,92.87
2970.00,92.87
2969.00,92.87
2968.00,92.87
2967.00,92.86
2966.00,92.86
2965.00,92.86
2964.00,92.87
2963.00,92.86
2962.00,92.86
2961.00,92.86
2960.00,92.86
2959.00,92.87
2958.00,92.86
2957.00,92.86
2956.00,92.86
2955.00,92.85
2954.00,92.85
2953.00,92.85
2952.00,92.85
2951.00,92.85
2950.00,92.85
2949.00,92.85
2948.00,92.85
2947.00,92.85
2946.00,92.85
2945.00,92.85
2944.00,92.85
2943.00,92.85
2942.00,92.85
2941.00,92.86
2940.00,92.87
2939.00,92.87
2938.00,92.87
2937.00,92.87
2936.00,92.87
2935.00,92.87
2934.00,92.86
2933.00,92.86
2932.00,92.85
2931.00,92.85
2930.00,92.85
2929.00,92.85
2928.00,92.85
2927.00,92.85
2926.00,92.85
2925.00,92.85
2924.00,92.85
2923.00,92.84
2922.00,92.84
2921.00,92.84
2920.00,92.84
2919.00,92.83
2918.00,92.82
2917.00,92.82
2916.00,92.81
2915.00,92.81
2914.00,92.82
2913.00,92.83
2912.00,92.83
2911.00,92.83
2910.00,92.83
2909.00,92.84
2908.00,92.85
2907.00,92.86
2906.00,92.86
2905.00,92.86
2904.00,92.85
2903.00,92.85
2902.00,92.85
2901.00,92.85
2900.00,92.86
2899.00,92.86
2898.00,92.86
2897.00,92.87
2896.00,92.87
2895.00,92.87
2894.00,92.87
2893.00,92.87
2892.00,92.87
2891.00,92.87
2890.00,92.87
2889.00,92.87
2888.00,92.87
2887.00,92.86
2886.00,92.86
2885.00,92.87
2884.00,92.87
2883.00,92.87
2882.00,92.87
2881.00,92.87
2880.00,92.87
2879.00,92.87
2878.00,92.88
2877.00,92.89
2876.00,92.89
2875.00,92.89
2874.00,92.88
2873.00,92.88
2872.00,92.87
2871.00,92.86
2870.00,92.87
2869.00,92.87
2868.00,92.87
2867.00,92.87
2866.00,92.88
2865.00,92.89
2864.00,92.89
2863.00,92.89
2862.00,92.89
2861.00,92.89
2860.00,92.89
2859.00,92.89
2858.00,92.89
2857.00,92.89
2856.00,92.88
2855.00,92.88
2854.00,92.87
2853.00,92.87
2852.00,92.87
2851.00,92.86
2850.00,92.86
2849.00,92.86
2848.00,92.86
2847.00,92.87
2846.00,92.87
2845.00,92.87
2844.00,92.87
2843.00,92.87
2842.00,92.87
2841.00,92.87
2840.00,92.87
2839.00,92.87
2838.00,92.87
2837.00,92.87
2836.00,92.87
2835.00,92.87
2834.00,92.87
2833.00,92.88
2832.00,92.88
2831.00,92.88
2830.00,92.89
2829.00,92.89
2828.00,92.89
2827.00,92.88
2826.00,92.88
2825.00,92.88
2824.00,92.88
2823.00,92.88
2822.00,92.89
2821.00,92.89
2820.00,92.89
2819.00,92.88
2818.00,92.88
2817.00,92.89
2816.00,92.89
2815.00,92.90
2814.00,92.90
2813.00,92.90
2812.00,92.89
2811.00,92.89
2810.00,92.90
2809.00,92.90
2808.00,92.90
2807.00,92.89
2806.00,92.89
2805.00,92.89
2804.00,92.90
2803.00,92.90
2802.00,92.91
2801.00,92.91
2800.00,92.91
2799.00,92.91
2798.00,92.91
2797.00,92.91
2796.00,92.90
2795.00,92.90
2794.00,92.91
2793.00,92.91
2792.00,92.91
2791.00,92.91
2790.00,92.91
2789.00,92.91
2788.00,92.91
2787.00,92.91
2786.00,92.92
2785.00,92.92
2784.00,92.92
2783.00,92.92
2782.00,92.92
2781.00,92.92
2780.00,92.91
2779.00,92.91
2778.00,92.91
2777.00,92.92
2776.00,92.92
2775.00,92.92
2774.00,92.92
2773.00,92.92
2772.00,92.92
2771.00,92.92
2770.00,92.92
2769.00,92.92
2768.00,92.92
2767.00,92.91
2766.00,92.91
2765.00,92.92
2764.00,92.92
2763.00,92.92
2762.00,92.92
2761.00,92.92
2760.00,92.92
2759.00,92.92
2758.00,92.92
2757.00,92.93
2756.00,92.93
2755.00,92.93
2754.00,92.93
2753.00,92.93
2752.00,92.93
2751.00,92.93
2750.00,92.93
2749.00,92.93
2748.00,92.93
2747.00,92.93
2746.00,92.93
2745.00,92.94
2744.00,92.94
2743.00,92.94
2742.00,92.95
2741.00,92.95
2740.00,92.95
2739.00,92.95
2738.00,92.95
2737.00,92.95
2736.00,92.95
2735.00,92.95
2734.00,92.94
2733.00,92.94
2732.00,92.94
2731.00,92.94
2730.00,92.94
2729.00,92.95
2728.00,92.95
2727.00,92.96
2726.00,92.96
2725.00,92.97
2724.00,92.97
2723.00,92.96
2722.00,92.96
2721.00,92.96
2720.00,92.96
2719.00,92.96
2718.00,92.95
2717.00,92.96
2716.00,92.96
2715.00,92.97
2714.00,92.97
2713.00,92.97
2712.00,92.96
2711.00,92.95
2710.00,92.95
2709.00,92.95
2708.00,92.95
2707.00,92.96
2706.00,92.96
2705.00,92.97
2704.00,92.97
2703.00,92.97
2702.00,92.97
2701.00,92.97
2700.00,92.97
2699.00,92.96
2698.00,92.97
2697.00,92.97
2696.00,92.97
2695.00,92.96
2694.00,92.96
2693.00,92.97
2692.00,92.98
2691.00,92.98
2690.00,92.98
2689.00,92.99
2688.00,92.98
2687.00,92.98
2686.00,92.98
2685.00,92.98
2684.00,92.98
2683.00,92.98
2682.00,92.98
2681.00,92.99
2680.00,92.99
2679.00,92.98
2678.00,92.97
2677.00,92.97
2676.00,92.98
2675.00,92.98
2674.00,92.98
2673.00,92.99
2672.00,92.99
2671.00,92.99
2670.00,92.99
2669.00,93.00
2668.00,92.99
2667.00,92.99
2666.00,92.99
2665.00,93.00
2664.00,93.00
2663.00,93.00
2662.00,92.99
2661.00,92.99
2660.00,92.99
2659.00,92.99
2658.00,92.99
2657.00,92.99
2656.00,92.99
2655.00,92.99
2654.00,92.99
2653.00,92.99
2652.00,92.99
2651.00,92.99
2650.00,92.99
2649.00,93.00
2648.00,93.00
2647.00,93.00
2646.00,93.00
2645.00,93.00
2644.00,93.01
2643.00,93.01
2642.00,93.01
2641.00,93.02
2640.00,93.02
2639.00,93.02
2638.00,93.02
2637.00,93.01
2636.00,93.01
2635.00,93.02
2634.00,93.02
2633.00,93.02
2632.00,93.02
2631.00,93.02
2630.00,93.02
2629.00,93.02
2628.00,93.02
2627.00,93.01
2626.00,93.01
2625.00,93.01
2624.00,93.01
2623.00,93.01
2622.00,93.02
2621.00,93.02
2620.00,93.03
2619.00,93.03
2618.00,93.03
2617.00,93.03
2616.00,93.03
2615.00,93.03
2614.00,93.04
2613.00,93.04
2612.00,93.04
2611.00,93.04
2610.00,93.04
2609.00,93.04
2608.00,93.04
2607.00,93.03
2606.00,93.04
2605.00,93.04
2604.00,93.05
2603.00,93.05
2602.00,93.05
2601.00,93.05
2600.00,93.04
2599.00,93.03
2598.00,93.04
2597.00,93.04
2596.00,93.05
2595.00,93.05
2594.00,93.05
2593.00,93.05
2592.00,93.05
2591.00,93.05
2590.00,93.06
2589.00,93.06
2588.00,93.06
2587.00,93.06
2586.00,93.07
2585.00,93.07
2584.00,93.08
2583.00,93.07
2582.00,93.07
2581.00,93.07
2580.00,93.07
2579.00,93.06
2578.00,93.06
2577.00,93.06
2576.00,93.06
2575.00,93.06
2574.00,93.07
2573.00,93.08
2572.00,93.08
2571.00,93.08
2570.00,93.08
2569.00,93.07
2568.00,93.07
2567.00,93.06
2566.00,93.07
2565.00,93.07
2564.00,93.07
2563.00,93.06
2562.00,93.07
2561.00,93.07
2560.00,93.08
2559.00,93.08
2558.00,93.09
2557.00,93.09
2556.00,93.10
2555.00,93.10
2554.00,93.11
2553.00,93.11
2552.00,93.11
2551.00,93.10
2550.00,93.10
2549.00,93.10
2548.00,93.10
2547.00,93.10
2546.00,93.10
2545.00,93.10
2544.00,93.09
2543.00,93.09
2542.00,93.09
2541.00,93.10
2540.00,93.10
2539.00,93.10
2538.00,93.10
2537.00,93.11
2536.00,93.11
2535.00,93.10
2534.00,93.10
2533.00,93.10
2532.00,93.10
2531.00,93.09
2530.00,93.10
2529.00,93.10
2528.00,93.11
2527.00,93.11
2526.00,93.12
2525.00,93.12
2524.00,93.13
2523.00,93.12
2522.00,93.12
2521.00,93.12
2520.00,93.12
2519.00,93.12
2518.00,93.12
2517.00,93.12
2516.00,93.12
2515.00,93.12
2514.00,93.12
2513.00,93.12
2512.00,93.12
2511.00,93.12
2510.00,93.12
2509.00,93.12
2508.00,93.13
2507.00,93.13
2506.00,93.13
2505.00,93.14
2504.00,93.14
2503.00,93.13
2502.00,93.13
2501.00,93.13
2500.00,93.13
2499.00,93.13
2498.00,93.13
2497.00,93.13
2496.00,93.13
2495.00,93.13
2494.00,93.14
2493.00,93.15
2492.00,93.15
2491.00,93.14
2490.00,93.14
2489.00,93.14
2488.00,93.13
2487.00,93.13
2486.00,93.14
2485.00,93.15
2484.00,93.14
2483.00,93.13
2482.00,93.13
2481.00,93.13
2480.00,93.13
2479.00,93.13
2478.00,93.15
2477.00,93.16
2476.00,93.16
2475.00,93.15
2474.00,93.15
2473.00,93.16
2472.00,93.16
2471.00,93.16
2470.00,93.16
2469.00,93.16
2468.00,93.16
2467.00,93.15
2466.00,93.15
2465.00,93.16
2464.00,93.15
2463.00,93.15
2462.00,93.15
2461.00,93.16
2460.00,93.15
2459.00,93.15
2458.00,93.15
2457.00,93.16
2456.00,93.16
2455.00,93.15
2454.00,93.14
2453.00,93.14
2452.00,93.14
2451.00,93.13
2450.00,93.13
2449.00,93.14
2448.00,93.14
2447.00,93.14
2446.00,93.14
2445.00,93.14
2444.00,93.14
2443.00,93.13
2442.00,93.13
2441.00,93.14
2440.00,93.14
2439.00,93.13
2438.00,93.12
2437.00,93.12
2436.00,93.12
2435.00,93.11
2434.00,93.11
2433.00,93.11
2432.00,93.10
2431.00,93.09
2430.00,93.09
2429.00,93.10
2428.00,93.09
2427.00,93.08
2426.00,93.07
2425.00,93.07
2424.00,93.05
2423.00,93.03
2422.00,93.03
2421.00,93.02
2420.00,93.01
2419.00,93.00
2418.00,92.99
2417.00,92.98
2416.00,92.97
2415.00,92.95
2414.00,92.93
2413.00,92.92
2412.00,92.90
2411.00,92.88
2410.00,92.86
2409.00,92.84
2408.00,92.82
2407.00,92.78
2406.00,92.75
2405.00,92.73
2404.00,92.69
2403.00,92.64
2402.00,92.60
2401.00,92.56
2400.00,92.50
2399.00,92.44
2398.00,92.38
2397.00,92.31
2396.00,92.21
2395.00,92.06
2394.00,91.76
2393.00,91.17
2392.00,90.13
2391.00,88.09
2390.00,86.09
2389.00,81.98
2388.00,80.68
2387.00,74.36
2386.00,79.12
2385.00,52.20
2384.00,25.50
2383.00,23.76
2382.00,13.86
2381.00,10.32
2380.00,5.47
2379.00,3.34
2378.00,1.55
2377.00,0.74
2376.00,0.32
2375.00,0.14
2374.00,0.10
2373.00,0.11
2372.00,0.12
2371.00,0.12
2370.00,0.12
2369.00,0.13
2368.00,0.13
2367.00,0.13
2366.00,0.13
2365.00,0.13
2364.00,0.13
2363.00,0.12
2362.00,0.12
2361.00,0.12
2360.00,0.11
2359.00,0.10
2358.00,0.10
2357.00,0.10
2356.00,0.11
2355.00,0.10
2354.00,0.10
2353.00,0.10
2352.00,0.10
2351.00,0.09
2350.00,0.09
2349.00,0.09
2348.00,0.09
2347.00,0.09
2346.00,0.09
2345.00,0.10
2344.00,0.10
2343.00,0.10
2342.00,0.10
2341.00,0.11
2340.00,0.11
2339.00,0.12
2338.00,0.12
2337.00,0.13
2336.00,0.12
2335.00,0.12
2334.00,0.11
2333.00,0.12
2332.00,0.12
2331.00,0.12
2330.00,0.11
2329.00,0.11
2328.00,0.11
2327.00,0.11
2326.00,0.11
2325.00,0.11
2324.00,0.11
2323.00,0.09
2322.00,0.09
2321.00,0.10
2320.00,0.11
2319.00,0.12
2318.00,0.16
2317.00,0.24
2316.00,0.33
2315.00,0.43
2314.00,0.56
2313.00,0.70
2312.00,0.80
2311.00,0.89
2310.00,1.10
2309.00,1.52
2308.00,2.22
2307.00,3.23
2306.00,4.63
2305.00,5.46
2304.00,6.72
2303.00,6.01
2302.00,8.68
2301.00,6.19
2300.00,21.34
2299.00,33.92
2298.00,30.17
2297.00,31.74
2296.00,30.56
2295.00,31.97
2294.00,33.53
2293.00,36.46
2292.00,39.19
2291.00,41.33
2290.00,42.85
2289.00,44.65
2288.00,47.42
2287.00,51.30
2286.00,55.77
2285.00,59.77
2284.00,62.10
2283.00,62.12
2282.00,60.55
2281.00,58.80
2280.00,57.99
2279.00,58.07
2278.00,58.69
2277.00,59.47
2276.00,60.38
2275.00,61.38
2274.00,62.32
2273.00,63.23
2272.00,64.08
2271.00,64.80
2270.00,65.26
2269.00,65.45
2268.00,65.49
2267.00,65.53
2266.00,65.66
2265.00,66.04
2264.00,66.68
2263.00,67.61
2262.00,68.64
2261.00,69.60
2260.00,70.40
2259.00,70.92
2258.00,71.31
2257.00,71.67
2256.00,72.23
2255.00,72.98
2254.00,73.88
2253.00,74.89
2252.00,76.00
2251.00,77.23
2250.00,78.50
2249.00,79.74
2248.00,80.84
2247.00,81.75
2246.00,82.49
2245.00,83.19
2244.00,83.94
2243.00,84.76
2242.00,85.56
2241.00,86.33
2240.00,87.06
2239.00,87.75
2238.00,88.40
2237.00,89.01
2236.00,89.57
2235.00,90.08
2234.00,90.53
2233.00,90.90
2232.00,91.24
2231.00,91.54
2230.00,91.80
2229.00,92.02
2228.00,92.22
2227.00,92.40
2226.00,92.55
2225.00,92.67
2224.00,92.78
2223.00,92.88
2222.00,92.96
2221.00,93.02
2220.00,93.07
2219.00,93.13
2218.00,93.17
2217.00,93.20
2216.00,93.23
2215.00,93.26
2214.00,93.28
2213.00,93.29
2212.00,93.30
2211.00,93.32
2210.00,93.33
2209.00,93.34
2208.00,93.35
2207.00,93.37
2206.00,93.37
2205.00,93.37
2204.00,93.38
2203.00,93.39
2202.00,93.39
2201.00,93.39
2200.00,93.39
2199.00,93.39
2198.00,93.40
2197.00,93.40
2196.00,93.40
2195.00,93.41
2194.00,93.41
2193.00,93.41
2192.00,93.41
2191.00,93.42
2190.00,93.42
2189.00,93.41
2188.00,93.41
2187.00,93.42
2186.00,93.42
2185.00,93.42
2184.00,93.41
2183.00,93.42
2182.00,93.42
2181.00,93.42
2180.00,93.42
2179.00,93.43
2178.00,93.43
2177.00,93.43
2176.00,93.43
2175.00,93.44
2174.00,93.44
2173.00,93.43
2172.00,93.43
2171.00,93.42
2170.00,93.43
2169.00,93.43
2168.00,93.43
2167.00,93.44
2166.00,93.44
2165.00,93.44
2164.00,93.43
2163.00,93.43
2162.00,93.44
2161.00,93.44
2160.00,93.44
2159.00,93.44
2158.00,93.44
2157.00,93.44
2156.00,93.44
2155.00,93.44
2154.00,93.44
2153.00,93.44
2152.00,93.44
2151.00,93.45
2150.00,93.46
2149.00,93.46
2148.00,93.46
2147.00,93.46
2146.00,93.46
2145.00,93.45
2144.00,93.45
2143.00,93.45
2142.00,93.45
2141.00,93.46
2140.00,93.46
2139.00,93.46
2138.00,93.47
2137.00,93.47
2136.00,93.47
2135.00,93.47
2134.00,93.46
2133.00,93.44
2132.00,93.40
2131.00,93.35
2130.00,93.32
2129.00,93.34
2128.00,93.39
2127.00,93.43
2126.00,93.45
2125.00,93.45
2124.00,93.45
2123.00,93.45
2122.00,93.44
2121.00,93.44
2120.00,93.43
2119.00,93.42
2118.00,93.42
2117.00,93.42
2116.00,93.41
2115.00,93.41
2114.00,93.42
2113.00,93.43
2112.00,93.43
2111.00,93.42
2110.00,93.42
2109.00,93.41
2108.00,93.41
2107.00,93.41
2106.00,93.42
2105.00,93.43
2104.00,93.43
2103.00,93.43
2102.00,93.44
2101.00,93.45
2100.00,93.44
2099.00,93.44
2098.00,93.43
2097.00,93.38
2096.00,93.28
2095.00,93.19
2094.00,93.16
2093.00,93.23
2092.00,93.32
2091.00,93.40
2090.00,93.43
2089.00,93.43
2088.00,93.42
2087.00,93.39
2086.00,93.38
2085.00,93.37
2084.00,93.36
2083.00,93.35
2082.00,93.30
2081.00,92.98
2080.00,92.23
2079.00,91.30
2078.00,90.81
2077.00,91.16
2076.00,92.09
2075.00,92.95
2074.00,93.32
2073.00,93.32
2072.00,93.24
2071.00,93.19
2070.00,93.13
2069.00,93.06
2068.00,93.01
2067.00,92.97
2066.00,92.92
2065.00,92.87
2064.00,92.85
2063.00,92.83
2062.00,92.82
2061.00,92.80
2060.00,92.81
2059.00,92.83
2058.00,92.85
2057.00,92.86
2056.00,92.88
2055.00,92.92
2054.00,92.94
2053.00,92.97
2052.00,93.01
2051.00,93.06
2050.00,93.10
2049.00,93.14
2048.00,93.19
2047.00,93.24
2046.00,93.27
2045.00,93.30
2044.00,93.33
2043.00,93.36
2042.00,93.38
2041.00,93.39
2040.00,93.40
2039.00,93.42
2038.00,93.43
2037.00,93.44
2036.00,93.46
2035.00,93.49
2034.00,93.50
2033.00,93.50
2032.00,93.50
2031.00,93.52
2030.00,93.53
2029.00,93.53
2028.00,93.54
2027.00,93.55
2026.00,93.55
2025.00,93.54
2024.00,93.54
2023.00,93.54
2022.00,93.54
2021.00,93.53
2020.00,93.53
2019.00,93.54
2018.00,93.53
2017.00,93.53
2016.00,93.53
2015.00,93.54
2014.00,93.54
2013.00,93.53
2012.00,93.54
2011.00,93.54
2010.00,93.55
2009.00,93.55
2008.00,93.55
2007.00,93.56
2006.00,93.57
2005.00,93.57
2004.00,93.57
2003.00,93.58
2002.00,93.58
2001.00,93.57
2000.00,93.57
1999.00,93.57
1998.00,93.57
1997.00,93.57
1996.00,93.57
1995.00,93.57
1994.00,93.56
1993.00,93.55
1992.00,93.55
1991.00,93.56
1990.00,93.56
1989.00,93.56
1988.00,93.56
1987.00,93.57
1986.00,93.56
1985.00,93.56
1984.00,93.56
1983.00,93.57
1982.00,93.57
1981.00,93.57
1980.00,93.57
1979.00,93.57
1978.00,93.57
1977.00,93.57
1976.00,93.58
1975.00,93.58
1974.00,93.58
1973.00,93.58
1972.00,93.58
1971.00,93.57
1970.00,93.56
1969.00,93.55
1968.00,93.55
1967.00,93.56
1966.00,93.56
1965.00,93.57
1964.00,93.58
1963.00,93.59
1962.00,93.58
1961.00,93.58
1960.00,93.59
1959.00,93.59
1958.00,93.59
1957.00,93.58
1956.00,93.58
1955.00,93.59
1954.00,93.59
1953.00,93.59
1952.00,93.60
1951.00,93.60
1950.00,93.60
1949.00,93.59
1948.00,93.59
1947.00,93.59
1946.00,93.59
1945.00,93.57
1944.00,93.57
1943.00,93.57
1942.00,93.58
1941.00,93.58
1940.00,93.59
1939.00,93.60
1938.00,93.59
1937.00,93.56
1936.00,93.50
1935.00,93.43
1934.00,93.37
1933.00,93.37
1932.00,93.44
1931.00,93.53
1930.00,93.59
1929.00,93.59
1928.00,93.59
1927.00,93.58
1926.00,93.57
1925.00,93.54
1924.00,93.53
1923.00,93.52
1922.00,93.52
1921.00,93.51
1920.00,93.50
1919.00,93.50
1918.00,93.50
1917.00,93.50
1916.00,93.51
1915.00,93.53
1914.00,93.52
1913.00,93.50
1912.00,93.49
1911.00,93.49
1910.00,93.50
1909.00,93.50
1908.00,93.51
1907.00,93.53
1906.00,93.55
1905.00,93.54
1904.00,93.55
1903.00,93.56
1902.00,93.57
1901.00,93.56
1900.00,93.57
1899.00,93.58
1898.00,93.59
1897.00,93.59
1896.00,93.58
1895.00,93.59
1894.00,93.60
1893.00,93.60
1892.00,93.59
1891.00,93.60
1890.00,93.60
1889.00,93.60
1888.00,93.61
1887.00,93.63
1886.00,93.64
1885.00,93.63
1884.00,93.62
1883.00,93.63
1882.00,93.63
1881.00,93.62
1880.00,93.62
1879.00,93.63
1878.00,93.64
1877.00,93.64
1876.00,93.63
1875.00,93.64
1874.00,93.65
1873.00,93.65
1872.00,93.64
1871.00,93.64
1870.00,93.64
1869.00,93.61
1868.00,93.59
1867.00,93.61
1866.00,93.64
1865.00,93.65
1864.00,93.64
1863.00,93.64
1862.00,93.65
1861.00,93.64
1860.00,93.63
1859.00,93.64
1858.00,93.65
1857.00,93.65
1856.00,93.64
1855.00,93.64
1854.00,93.65
1853.00,93.64
1852.00,93.65
1851.00,93.65
1850.00,93.66
1849.00,93.65
1848.00,93.64
1847.00,93.64
1846.00,93.64
1845.00,93.64
1844.00,93.64
1843.00,93.66
1842.00,93.68
1841.00,93.68
1840.00,93.67
1839.00,93.66
1838.00,93.65
1837.00,93.65
1836.00,93.65
1835.00,93.66
1834.00,93.66
1833.00,93.65
1832.00,93.64
1831.00,93.64
1830.00,93.64
1829.00,93.64
1828.00,93.65
1827.00,93.65
1826.00,93.65
1825.00,93.65
1824.00,93.65
1823.00,93.65
1822.00,93.66
1821.00,93.66
1820.00,93.65
1819.00,93.64
1818.00,93.65
1817.00,93.66
1816.00,93.65
1815.00,93.65
1814.00,93.67
1813.00,93.67
1812.00,93.65
1811.00,93.64
1810.00,93.66
1809.00,93.66
1808.00,93.65
1807.00,93.66
1806.00,93.67
1805.00,93.67
1804.00,93.65
1803.00,93.66
1802.00,93.68
1801.00,93.69
1800.00,93.68
1799.00,93.69
1798.00,93.71
1797.00,93.70
1796.00,93.68
1795.00,93.68
1794.00,93.71
1793.00,93.71
1792.00,93.69
1791.00,93.70
1790.00,93.72
1789.00,93.72
1788.00,93.70
1787.00,93.69
1786.00,93.69
1785.00,93.69
1784.00,93.67
1783.00,93.67
1782.00,93.68
1781.00,93.69
1780.00,93.69
1779.00,93.70
1778.00,93.71
1777.00,93.72
1776.00,93.74
1775.00,93.76
1774.00,93.80
1773.00,93.83
1772.00,93.81
1771.00,93.76
1770.00,93.73
1769.00,93.73
1768.00,93.73
1767.00,93.72
1766.00,93.72
1765.00,93.73
1764.00,93.73
1763.00,93.71
1762.00,93.71
1761.00,93.73
1760.00,93.75
1759.00,93.76
1758.00,93.77
1757.00,93.78
1756.00,93.79
1755.00,93.77
1754.00,93.78
1753.00,93.83
1752.00,93.88
1751.00,93.85
1750.00,93.79
1749.00,93.75
1748.00,93.74
1747.00,93.72
1746.00,93.70
1745.00,93.71
1744.00,93.71
1743.00,93.70
1742.00,93.70
1741.00,93.72
1740.00,93.74
1739.00,93.74
1738.00,93.74
1737.00,93.74
1736.00,93.80
1735.00,93.90
1734.00,93.92
1733.00,93.86
1732.00,93.80
1731.00,93.76
1730.00,93.72
1729.00,93.70
1728.00,93.70
1727.00,93.70
1726.00,93.70
1725.00,93.70
1724.00,93.70
1723.00,93.72
1722.00,93.75
1721.00,93.77
1720.00,93.79
1719.00,93.88
1718.00,94.00
1717.00,94.00
1716.00,93.93
1715.00,93.88
1714.00,93.85
1713.00,93.80
1712.00,93.74
1711.00,93.72
1710.00,93.73
1709.00,93.72
1708.00,93.70
1707.00,93.71
1706.00,93.76
1705.00,93.77
1704.00,93.74
1703.00,93.73
1702.00,93.78
1701.00,93.81
1700.00,93.78
1699.00,93.81
1698.00,93.90
1697.00,93.94
1696.00,93.89
1695.00,93.81
1694.00,93.79
1693.00,93.79
1692.00,93.77
1691.00,93.75
1690.00,93.76
1689.00,93.77
1688.00,93.76
1687.00,93.73
1686.00,93.74
1685.00,93.79
1684.00,93.81
1683.00,93.80
1682.00,93.77
1681.00,93.76
1680.00,93.77
1679.00,93.78
1678.00,93.78
1677.00,93.80
1676.00,93.85
1675.00,93.85
1674.00,93.81
1673.00,93.79
1672.00,93.79
1671.00,93.77
1670.00,93.73
1669.00,93.70
1668.00,93.71
1667.00,93.73
1666.00,93.73
1665.00,93.73
1664.00,93.74
1663.00,93.76
1662.00,93.75
1661.00,93.75
1660.00,93.77
1659.00,93.77
1658.00,93.75
1657.00,93.70
1656.00,93.62
1655.00,93.55
1654.00,93.55
1653.00,93.54
1652.00,93.54
1651.00,93.63
1650.00,93.73
1649.00,93.75
1648.00,93.74
1647.00,93.72
1646.00,93.72
1645.00,93.72
1644.00,93.75
1643.00,93.79
1642.00,93.79
1641.00,93.78
1640.00,93.77
1639.00,93.73
1638.00,93.69
1637.00,93.67
1636.00,93.68
1635.00,93.68
1634.00,93.70
1633.00,93.73
1632.00,93.75
1631.00,93.76
1630.00,93.76
1629.00,93.74
1628.00,93.73
1627.00,93.73
1626.00,93.71
1625.00,93.69
1624.00,93.70
1623.00,93.71
1622.00,93.71
1621.00,93.70
1620.00,93.67
1619.00,93.60
1618.00,93.50
1617.00,93.46
1616.00,93.52
1615.00,93.62
1614.00,93.68
1613.00,93.69
1612.00,93.70
1611.00,93.71
1610.00,93.69
1609.00,93.67
1608.00,93.68
1607.00,93.69
1606.00,93.68
1605.00,93.67
1604.00,93.68
1603.00,93.69
1602.00,93.66
1601.00,93.65
1600.00,93.67
1599.00,93.67
1598.00,93.65
1597.00,93.63
1596.00,93.63
1595.00,93.64
1594.00,93.63
1593.00,93.63
1592.00,93.64
1591.00,93.66
1590.00,93.65
1589.00,93.64
1588.00,93.65
1587.00,93.67
1586.00,93.66
1585.00,93.65
1584.00,93.67
1583.00,93.68
1582.00,93.66
1581.00,93.64
1580.00,93.63
1579.00,93.56
1578.00,93.43
1577.00,93.35
1576.00,93.39
1575.00,93.49
1574.00,93.59
1573.00,93.65
1572.00,93.66
1571.00,93.65
1570.00,93.62
1569.00,93.64
1568.00,93.70
1567.00,93.75
1566.00,93.75
1565.00,93.75
1564.00,93.76
1563.00,93.71
1562.00,93.60
1561.00,93.58
1560.00,93.70
1559.00,93.73
1558.00,93.68
1557.00,93.69
1556.00,93.76
1555.00,93.80
1554.00,93.79
1553.00,93.79
1552.00,93.80
1551.00,93.80
1550.00,93.78
1549.00,93.78
1548.00,93.82
1547.00,93.85
1546.00,93.85
1545.00,93.83
1544.00,93.81
1543.00,93.80
1542.00,93.81
1541.00,93.79
1540.00,93.72
1539.00,93.65
1538.00,93.64
1537.00,93.70
1536.00,93.77
1535.00,93.80
1534.00,93.80
1533.00,93.79
1532.00,93.78
1531.00,93.79
1530.00,93.81
1529.00,93.82
1528.00,93.83
1527.00,93.86
1526.00,93.89
1525.00,93.90
1524.00,93.88
1523.00,93.87
1522.00,93.88
1521.00,93.88
1520.00,93.87
1519.00,93.87
1518.00,93.87
1517.00,93.85
1516.00,93.83
1515.00,93.83
1514.00,93.85
1513.00,93.86
1512.00,93.82
1511.00,93.78
1510.00,93.78
1509.00,93.80
1508.00,93.83
1507.00,93.84
1506.00,93.83
1505.00,93.80
1504.00,93.79
1503.00,93.79
1502.00,93.79
1501.00,93.78
1500.00,93.77
1499.00,93.79
1498.00,93.87
1497.00,93.93
1496.00,93.91
1495.00,93.86
1494.00,93.84
1493.00,93.84
1492.00,93.83
1491.00,93.82
1490.00,93.80
1489.00,93.75
1488.00,93.70
1487.00,93.69
1486.00,93.71
1485.00,93.70
1484.00,93.69
1483.00,93.69
1482.00,93.71
1481.00,93.72
1480.00,93.72
1479.00,93.74
1478.00,93.76
1477.00,93.78
1476.00,93.81
1475.00,93.87
1474.00,93.94
1473.00,93.94
1472.00,93.87
1471.00,93.79
1470.00,93.76
1469.00,93.74
1468.00,93.71
1467.00,93.71
1466.00,93.72
1465.00,93.74
1464.00,93.74
1463.00,93.74
1462.00,93.75
1461.00,93.76
1460.00,93.74
1459.00,93.74
1458.00,93.78
1457.00,93.83
1456.00,93.82
1455.00,93.79
1454.00,93.78
1453.00,93.77
1452.00,93.76
1451.00,93.74
1450.00,93.73
1449.00,93.73
1448.00,93.72
1447.00,93.69
1446.00,93.68
1445.00,93.71
1444.00,93.72
1443.00,93.70
1442.00,93.70
1441.00,93.72
1440.00,93.72
1439.00,93.69
1438.00,93.69
1437.00,93.72
1436.00,93.73
1435.00,93.71
1434.00,93.70
1433.00,93.71
1432.00,93.71
1431.00,93.69
1430.00,93.67
1429.00,93.69
1428.00,93.69
1427.00,93.68
1426.00,93.67
1425.00,93.69
1424.00,93.71
1423.00,93.69
1422.00,93.65
1421.00,93.65
1420.00,93.66
1419.00,93.65
1418.00,93.67
1417.00,93.71
1416.00,93.73
1415.00,93.69
1414.00,93.66
1413.00,93.66
1412.00,93.68
1411.00,93.66
1410.00,93.66
1409.00,93.67
1408.00,93.68
1407.00,93.67
1406.00,93.65
1405.00,93.68
1404.00,93.71
1403.00,93.71
1402.00,93.71
1401.00,93.72
1400.00,93.74
1399.00,93.72
1398.00,93.71
1397.00,93.71
1396.00,93.72
1395.00,93.72
1394.00,93.70
1393.00,93.70
1392.00,93.71
1391.00,93.70
1390.00,93.66
1389.00,93.64
1388.00,93.64
1387.00,93.64
1386.00,93.64
1385.00,93.64
1384.00,93.65
1383.00,93.65
1382.00,93.65
1381.00,93.66
1380.00,93.67
1379.00,93.68
1378.00,93.68
1377.00,93.68
1376.00,93.67
1375.00,93.66
1374.00,93.65
1373.00,93.65
1372.00,93.67
1371.00,93.68
1370.00,93.68
1369.00,93.68
1368.00,93.70
1367.00,93.70
1366.00,93.68
1365.00,93.65
1364.00,93.63
1363.00,93.63
1362.00,93.63
1361.00,93.65
1360.00,93.66
1359.00,93.67
1358.00,93.67
1357.00,93.67
1356.00,93.67
1355.00,93.68
1354.00,93.68
1353.00,93.68
1352.00,93.69
1351.00,93.69
1350.00,93.68
1349.00,93.68
1348.00,93.69
1347.00,93.70
1346.00,93.70
1345.00,93.70
1344.00,93.70
1343.00,93.70
1342.00,93.68
1341.00,93.67
1340.00,93.66
1339.00,93.66
1338.00,93.66
1337.00,93.68
1336.00,93.69
1335.00,93.70
1334.00,93.70
1333.00,93.69
1332.00,93.69
1331.00,93.69
1330.00,93.69
1329.00,93.69
1328.00,93.70
1327.00,93.70
1326.00,93.70
1325.00,93.70
1324.00,93.70
1323.00,93.70
1322.00,93.70
1321.00,93.70
1320.00,93.71
1319.00,93.71
1318.00,93.71
1317.00,93.71
1316.00,93.72
1315.00,93.72
1314.00,93.72
1313.00,93.72
1312.00,93.73
1311.00,93.74
1310.00,93.75
1309.00,93.75
1308.00,93.75
1307.00,93.75
1306.00,93.75
1305.00,93.75
1304.00,93.76
1303.00,93.76
1302.00,93.75
1301.00,93.75
1300.00,93.76
1299.00,93.76
1298.00,93.75
1297.00,93.74
1296.00,93.74
1295.00,93.73
1294.00,93.73
1293.00,93.74
1292.00,93.76
1291.00,93.77
1290.00,93.77
1289.00,93.78
1288.00,93.78
1287.00,93.78
1286.00,93.78
1285.00,93.79
1284.00,93.80
1283.00,93.80
1282.00,93.79
1281.00,93.79
1280.00,93.79
1279.00,93.79
1278.00,93.79
1277.00,93.79
1276.00,93.80
1275.00,93.80
1274.00,93.79
1273.00,93.78
1272.00,93.78
1271.00,93.78
1270.00,93.79
1269.00,93.81
1268.00,93.83
1267.00,93.85
1266.00,93.85
1265.00,93.85
1264.00,93.85
1263.00,93.84
1262.00,93.83
1261.00,93.82
1260.00,93.82
1259.00,93.80
1258.00,93.79
1257.00,93.79
1256.00,93.81
1255.00,93.82
1254.00,93.81
1253.00,93.81
1252.00,93.82
1251.00,93.82
1250.00,93.83
1249.00,93.83
1248.00,93.83
1247.00,93.82
1246.00,93.81
1245.00,93.80
1244.00,93.81
1243.00,93.82
1242.00,93.82
1241.00,93.82
1240.00,93.82
1239.00,93.81
1238.00,93.80
1237.00,93.81
1236.00,93.81
1235.00,93.81
1234.00,93.80
1233.00,93.81
1232.00,93.82
1231.00,93.82
1230.00,93.82
1229.00,93.82
1228.00,93.82
1227.00,93.82
1226.00,93.82
1225.00,93.83
1224.00,93.84
1223.00,93.85
1222.00,93.84
1221.00,93.84
1220.00,93.84
1219.00,93.84
1218.00,93.85
1217.00,93.86
1216.00,93.87
1215.00,93.88
1214.00,93.88
1213.00,93.88
1212.00,93.88
1211.00,93.88
1210.00,93.86
1209.00,93.86
1208.00,93.87
1207.00,93.89
1206.00,93.90
1205.00,93.91
1204.00,93.92
1203.00,93.92
1202.00,93.92
1201.00,93.91
1200.00,93.92
1199.00,93.92
1198.00,93.92
1197.00,93.92
1196.00,93.94
1195.00,93.95
1194.00,93.95
1193.00,93.96
1192.00,93.98
1191.00,93.98
1190.00,93.98
1189.00,93.97
1188.00,93.97
1187.00,93.96
1186.00,93.95
1185.00,93.97
1184.00,93.99
1183.00,94.01
1182.00,94.02
1181.00,94.02
1180.00,94.01
1179.00,93.98
1178.00,93.96
1177.00,93.94
1176.00,93.93
1175.00,93.94
1174.00,93.96
1173.00,93.98
1172.00,94.00
1171.00,94.01
1170.00,94.00
1169.00,94.00
1168.00,94.01
1167.00,94.01
1166.00,94.02
1165.00,94.02
1164.00,94.03
1163.00,94.02
1162.00,94.02
1161.00,94.01
1160.00,94.01
1159.00,94.01
1158.00,94.01
1157.00,94.01
1156.00,94.00
1155.00,94.01
1154.00,94.01
1153.00,94.03
1152.00,94.04
1151.00,94.05
1150.00,94.05
1149.00,94.05
1148.00,94.04
1147.00,94.03
1146.00,94.02
1145.00,94.02
1144.00,94.04
1143.00,94.06
1142.00,94.08
1141.00,94.09
1140.00,94.09
1139.00,94.06
1138.00,94.04
1137.00,94.02
1136.00,94.03
1135.00,94.03
1134.00,94.02
1133.00,94.02
1132.00,94.01
1131.00,93.99
1130.00,93.98
1129.00,93.98
1128.00,93.99
1127.00,94.00
1126.00,94.02
1125.00,94.04
1124.00,94.05
1123.00,94.06
1122.00,94.05
1121.00,94.05
1120.00,94.05
1119.00,94.04
1118.00,94.04
1117.00,94.06
1116.00,94.08
1115.00,94.08
1114.00,94.08
1113.00,94.09
1112.00,94.10
1111.00,94.11
1110.00,94.10
1109.00,94.10
1108.00,94.10
1107.00,94.09
1106.00,94.08
1105.00,94.08
1104.00,94.10
1103.00,94.11
1102.00,94.10
1101.00,94.11
1100.00,94.11
1099.00,94.12
1098.00,94.11
1097.00,94.10
1096.00,94.08
1095.00,94.04
1094.00,94.00
1093.00,93.98
1092.00,93.99
1091.00,94.01
1090.00,94.02
1089.00,94.02
1088.00,94.00
1087.00,93.99
1086.00,93.99
1085.00,94.02
1084.00,94.06
1083.00,94.05
1082.00,94.02
1081.00,93.98
1080.00,93.96
1079.00,93.94
1078.00,93.93
1077.00,93.91
1076.00,93.89
1075.00,93.90
1074.00,93.93
1073.00,93.98
1072.00,94.02
1071.00,94.04
1070.00,94.03
1069.00,94.03
1068.00,94.05
1067.00,94.07
1066.00,94.09
1065.00,94.13
1064.00,94.16
1063.00,94.18
1062.00,94.18
1061.00,94.18
1060.00,94.18
1059.00,94.17
1058.00,94.16
1057.00,94.15
1056.00,94.16
1055.00,94.14
1054.00,94.10
1053.00,94.08
1052.00,94.09
1051.00,94.13
1050.00,94.16
1049.00,94.18
1048.00,94.17
1047.00,94.15
1046.00,94.12
1045.00,94.11
1044.00,94.11
1043.00,94.12
1042.00,94.16
1041.00,94.21
1040.00,94.27
1039.00,94.31
1038.00,94.32
1037.00,94.33
1036.00,94.33
1035.00,94.30
1034.00,94.28
1033.00,94.28
1032.00,94.29
1031.00,94.26
1030.00,94.19
1029.00,94.12
1028.00,94.09
1027.00,94.10
1026.00,94.16
1025.00,94.23
1024.00,94.30
1023.00,94.31
1022.00,94.28
1021.00,94.22
1020.00,94.15
1019.00,94.08
1018.00,94.07
1017.00,94.13
1016.00,94.23
1015.00,94.31
1014.00,94.33
1013.00,94.30
1012.00,94.22
1011.00,94.15
1010.00,94.14
1009.00,94.21
1008.00,94.30
1007.00,94.37
1006.00,94.42
1005.00,94.46
1004.00,94.46
1003.00,94.40
1002.00,94.31
1001.00,94.28
1000.00,94.30
999.00,94.29
998.00,94.24
997.00,94.19
996.00,94.19
995.00,94.22
994.00,94.25
993.00,94.24
992.00,94.16
991.00,94.05
990.00,93.97
989.00,94.01
988.00,94.12
987.00,94.23
986.00,94.29
985.00,94.34
984.00,94.37
983.00,94.40
982.00,94.40
981.00,94.40
980.00,94.36
979.00,94.28
978.00,94.19
977.00,94.14
976.00,94.17
975.00,94.24
974.00,94.33
973.00,94.39
972.00,94.40
971.00,94.37
970.00,94.37
969.00,94.41
968.00,94.41
967.00,94.32
966.00,94.24
965.00,94.25
964.00,94.31
963.00,94.32
962.00,94.29
961.00,94.27
960.00,94.25
959.00,94.21
958.00,94.22
957.00,94.30
956.00,94.37
955.00,94.36
954.00,94.33
953.00,94.41
952.00,94.54
951.00,94.59
950.00,94.61
949.00,94.69
948.00,94.80
947.00,94.74
946.00,94.48
945.00,94.15
944.00,93.95
943.00,93.94
942.00,94.12
941.00,94.38
940.00,94.49
939.00,94.34
938.00,94.08
937.00,93.86
936.00,93.61
935.00,93.26
934.00,93.06
933.00,93.36
932.00,94.07
931.00,94.77
930.00,95.21
929.00,95.40
928.00,95.40
927.00,95.23
926.00,95.14
925.00,95.38
924.00,95.72
923.00,95.72
922.00,95.41
921.00,95.09
920.00,94.77
919.00,94.44
918.00,94.46
917.00,95.06
916.00,95.84
915.00,96.06
914.00,95.74
913.00,95.26
912.00,94.57
911.00,93.74
910.00,93.53
909.00,94.12
908.00,94.46
907.00,93.77
906.00,92.77
905.00,92.74
904.00,93.97
903.00,95.29
902.00,95.83
901.00,96.18
900.00,96.52
899.00,96.61
898.00,96.75
897.00,97.29
896.00,96.85
895.00,95.24
894.00,96.54
893.00,103.03
892.00,111.50
891.00,114.02
890.00,111.70
889.00,113.97
888.00,115.95
887.00,107.10
886.00,93.96
885.00,85.32
884.00,81.87
883.00,80.40
882.00,84.41
881.00,100.00
880.00,124.06
879.00,133.16
878.00,123.99
877.00,128.70
876.00,136.81
875.00,130.61
874.00,118.36
873.00,142.42
872.00,182.07
871.00,167.99
870.00,103.92
869.00,179.60
868.00,221.17
867.00,322.51
866.00,140.19
865.00,495.84
864.00,1880.80
863.00,301.25
862.00,4.15
861.00,138.60
860.00,154.44
859.00,185.08
858.00,103.37
857.00,274.62
856.00,185.91
855.00,174.60
854.00,313.66
853.00,217.50
852.00,203.55
851.00,389.14
850.00,410.11
849.00,368.55
848.00,254.62
847.00,429.75
846.00,424.73
845.00,405.77
844.00,216.87
843.00,258.45
842.00,395.39
841.00,148.87
840.00,114.94
839.00,142.86
838.00,317.04
837.00,429.02
836.00,301.38
835.00,363.66
834.00,222.00
833.00,210.74
832.00,275.09
831.00,266.00
830.00,390.00
829.00,1183.84
828.00,499.83
827.00,551.53
826.00,330.31
825.00,166.78
824.00,292.70
823.00,796.12
822.00,428.34
821.00,715.21
820.00,357.07
819.00,260.62
818.00,222.61
817.00,202.49
816.00,124.51
815.00,77.39
814.00,109.40
813.00,97.77
812.00,103.66
811.00,124.21
810.00,327.50
809.00,627.51
808.00,268.59
807.00,328.99
806.00,461.64
805.00,320.35
804.00,219.05
803.00,236.71
802.00,171.52
801.00,167.21
800.00,207.52
799.00,180.02
798.00,154.90
797.00,232.32
796.00,290.78
795.00,459.20
794.00,705.70
793.00,1329.45
792.00,472.84
791.00,381.37
790.00,408.81
789.00,868.30
788.00,392.98
787.00,540.09
786.00,165.96
785.00,209.34
784.00,436.51
783.00,204.93
782.00,90.72
781.00,233.78
780.00,217.14
779.00,179.31
778.00,34.53
777.00,190.32
776.00,1151.47
775.00,622.41
774.00,97.46
773.00,250.26
772.00,385.54
771.00,303.83
770.00,66.53
769.00,305.62
768.00,1192.72
767.00,213.58
766.00,79.15
765.00,418.34
764.00,701.78
763.00,1324.50
762.00,269.25
761.00,260.91
760.00,268.94
759.00,279.55
758.00,413.30
757.00,621.37
756.00,313.69
755.00,281.07
754.00,228.62
753.00,232.04
752.00,303.20
751.00,306.99
750.00,113.01
749.00,270.77
748.00,493.76
747.00,248.00
746.00,123.14
745.00,253.74
744.00,525.07
743.00,321.51
742.00,130.17
741.00,324.39
740.00,569.96
739.00,265.10
738.00,74.97
737.00,199.55
736.00,302.58
735.00,297.42
734.00,303.85
733.00,642.88
732.00,393.32
731.00,1107.17
730.00,332.20
729.00,601.07
728.00,659.81
727.00,380.30
726.00,293.31
725.00,367.02
724.00,256.31
723.00,297.17
722.00,356.03
721.00,663.50
720.00,632.71
719.00,350.60
718.00,164.53
717.00,270.91
716.00,359.24
715.00,332.41
714.00,178.94
713.00,521.62
712.00,644.42
711.00,724.30
710.00,971.92
709.00,321.41
708.00,117.15
707.00,76.17
706.00,163.26
705.00,777.88
704.00,415.30
703.00,204.04
702.00,150.71
701.00,285.16
700.00,683.75
699.00,961.17
698.00,824.22
697.00,525.32
696.00,334.65
695.00,199.16
694.00,104.36
693.00,144.69
692.00,435.70
691.00,483.96
690.00,120.01
689.00,236.04
688.00,270.52
687.00,535.91
686.00,407.02
685.00,717.74
684.00,504.62
683.00,497.88
682.00,121.27
681.00,278.35
680.00,1889.83
679.00,1766.51
678.00,1093.43
677.00,318.84
676.00,158.07
675.00,302.95
674.00,927.19
673.00,275.78
672.00,191.80
671.00,285.66
670.00,211.07
669.00,401.04
668.00,338.99
667.00,416.86
666.00,125.06
665.00,339.77
664.00,319.26
663.00,567.12
662.00,860.28
661.00,254.83
660.00,129.78
659.00,202.32
658.00,636.21
657.00,287.36
656.00,170.74
655.00,272.19
654.00,144.73
653.00,321.77
652.00,523.93
651.00,359.07
650.00,250.08
649.00,476.90
648.00,377.01
647.00,940.11
646.00,243.37
645.00,450.87
644.00,869.75
643.00,299.90
642.00,166.31
641.00,297.58
640.00,321.64
639.00,282.35
638.00,224.61
637.00,469.18
636.00,377.69
635.00,555.81
634.00,863.87
633.00,933.10
632.00,364.31
631.00,310.86
630.00,127.79
629.00,378.77
628.00,1219.44
627.00,445.00
626.00,167.40
625.00,413.83
624.00,319.47
623.00,586.12
622.00,266.88
621.00,592.31
620.00,526.71
619.00,849.93
618.00,270.22
617.00,668.96
616.00,702.43
615.00,362.74
614.00,140.91
613.00,158.69
612.00,218.21
611.00,203.92
610.00,181.78
609.00,739.69
608.00,298.41
607.00,470.49
606.00,234.69
605.00,493.81
604.00,833.39
603.00,697.00
602.00,193.74
601.00,343.90
600.00,601.08
599.00,247.80
598.00,103.71
597.00,283.02
596.00,356.73
595.00,230.32
594.00,99.03
593.00,181.99
592.00,315.11
591.00,202.34
590.00,68.10
589.00,197.53
588.00,464.24
587.00,392.67
586.00,194.66
585.00,595.31
584.00,426.49
583.00,251.93
582.00,167.91
581.00,182.20
580.00,192.76
579.00,183.70
578.00,137.07
577.00,427.69
576.00,408.59
575.00,847.43
574.00,142.22
573.00,340.47
572.00,489.09
571.00,214.64
570.00,118.19
569.00,212.19
568.00,370.35
567.00,473.89
566.00,225.00
565.00,456.56
564.00,521.51
563.00,230.85
562.00,86.91
561.00,279.34
560.00,666.10
559.00,558.31
558.00,155.76
557.00,224.34
556.00,172.58
555.00,157.08
554.00,132.57
553.00,203.66
552.00,228.31
551.00,269.12
550.00,204.97
549.00,361.01
548.00,299.27
547.00,656.49
546.00,45.47
545.00,306.66
544.00,3735.96
543.00,612.88
542.00,173.78
541.00,367.43
540.00,238.22
539.00,412.52
538.00,95.43
537.00,301.91
536.00,962.11
535.00,423.75
534.00,184.63
533.00,261.73
532.00,207.48
531.00,195.98
530.00,54.66
529.00,167.24
528.00,948.29
527.00,219.07
526.00,87.04
525.00,350.53
524.00,630.36
523.00,195.09
522.00,54.63
521.00,179.58
520.00,890.24
519.00,357.78
518.00,150.12
517.00,340.54
516.00,266.10
515.00,192.45
514.00,118.83
513.00,180.99
512.00,271.68
511.00,152.51
510.00,73.89
509.00,200.35
508.00,278.88
507.00,327.75
506.00,161.21
505.00,637.44
504.00,406.67
503.00,445.80
502.00,395.23
501.00,851.97
500.00,374.83
499.00,483.63
498.00,285.71
497.00,391.17
496.00,366.56
495.00,538.82
494.00,177.98
493.00,626.23
492.00,295.02
491.00,239.61
490.00,362.73
489.00,295.27
488.00,285.26
487.00,521.18
486.00,347.96
485.00,1005.97
484.00,959.08
483.00,550.79
482.00,213.97
481.00,300.08
480.00,310.61
479.00,191.90
478.00,100.29
477.00,242.17
476.00,292.05
475.00,620.78
474.00,188.49
473.00,373.08
472.00,637.99
471.00,220.88
470.00,100.61
469.00,198.33
468.00,281.38
467.00,171.70
466.00,105.40
465.00,437.62
464.00,1290.92
463.00,1063.00
462.00,244.26
461.00,559.36
460.00,638.33
459.00,478.84
458.00,585.07
457.00,241.31
456.00,283.57
455.00,512.32
454.00,134.99
453.00,235.27
452.00,455.66
451.00,235.33
450.00,98.46
