Created as New Dataset,Sample 003 By Administrator Date Thursday, October 16 2025
cm-1,%T
4000.00,100.46
3999.00,100.46
3998.00,100.45
3997.00,100.45
3996.00,100.45
3995.00,100.46
3994.00,100.48
3993.00,100.49
3992.00,100.49
3991.00,100.49
3990.00,100.50
3989.00,100.52
3988.00,100.52
3987.00,100.51
3986.00,100.50
3985.00,100.48
3984.00,100.47
3983.00,100.47
3982.00,100.47
3981.00,100.49
3980.00,100.51
3979.00,100.52
3978.00,100.51
3977.00,100.50
3976.00,100.49
3975.00,100.47
3974.00,100.46
3973.00,100.47
3972.00,100.48
3971.00,100.48
3970.00,100.49
3969.00,100.50
3968.00,100.50
3967.00,100.51
3966.00,100.50
3965.00,100.49
3964.00,100.47
3963.00,100.46
3962.00,100.48
3961.00,100.50
3960.00,100.51
3959.00,100.49
3958.00,100.48
3957.00,100.47
3956.00,100.47
3955.00,100.47
3954.00,100.46
3953.00,100.46
3952.00,100.46
3951.00,100.46
3950.00,100.47
3949.00,100.51
3948.00,100.57
3947.00,100.63
3946.00,100.62
3945.00,100.54
3944.00,100.47
3943.00,100.46
3942.00,100.52
3941.00,100.55
3940.00,100.55
3939.00,100.52
3938.00,100.53
3937.00,100.55
3936.00,100.55
3935.00,100.51
3934.00,100.46
3933.00,100.42
3932.00,100.41
3931.00,100.42
3930.00,100.45
3929.00,100.49
3928.00,100.48
3927.00,100.41
3926.00,100.34
3925.00,100.37
3924.00,100.50
3923.00,100.63
3922.00,100.69
3921.00,100.68
3920.00,100.63
3919.00,100.54
3918.00,100.46
3917.00,100.44
3916.00,100.50
3915.00,100.56
3914.00,100.56
3913.00,100.53
3912.00,100.52
3911.00,100.55
3910.00,100.59
3909.00,100.61
3908.00,100.60
3907.00,100.59
3906.00,100.64
3905.00,100.80
3904.00,101.01
3903.00,101.13
3902.00,101.08
3901.00,100.91
3900.00,100.76
3899.00,100.69
3898.00,100.69
3897.00,100.69
3896.00,100.69
3895.00,100.68
3894.00,100.70
3893.00,100.74
3892.00,100.81
3891.00,100.90
3890.00,100.97
3889.00,100.95
3888.00,100.88
3887.00,100.84
3886.00,100.87
3885.00,100.88
3884.00,100.77
3883.00,100.54
3882.00,100.34
3881.00,100.32
3880.00,100.50
3879.00,100.73
3878.00,100.82
3877.00,100.73
3876.00,100.57
3875.00,100.55
3874.00,100.70
3873.00,100.89
3872.00,100.99
3871.00,101.04
3870.00,101.10
3869.00,101.13
3868.00,101.07
3867.00,100.93
3866.00,100.85
3865.00,100.85
3864.00,100.84
3863.00,100.80
3862.00,100.81
3861.00,100.85
3860.00,100.83
3859.00,100.68
3858.00,100.40
3857.00,100.09
3856.00,99.95
3855.00,100.06
3854.00,100.24
3853.00,100.33
3852.00,100.37
3851.00,100.40
3850.00,100.47
3849.00,100.59
3848.00,100.69
3847.00,100.71
3846.00,100.66
3845.00,100.64
3844.00,100.70
3843.00,100.79
3842.00,100.84
3841.00,100.84
3840.00,100.88
3839.00,100.97
3838.00,101.00
3837.00,100.94
3836.00,100.87
3835.00,100.87
3834.00,100.89
3833.00,100.88
3832.00,100.85
3831.00,100.79
3830.00,100.70
3829.00,100.56
3828.00,100.45
3827.00,100.48
3826.00,100.65
3825.00,100.85
3824.00,100.95
3823.00,100.99
3822.00,101.00
3821.00,100.99
3820.00,100.95
3819.00,100.86
3818.00,100.74
3817.00,100.68
3816.00,100.64
3815.00,100.58
3814.00,100.54
3813.00,100.55
3812.00,100.65
3811.00,100.79
3810.00,100.87
3809.00,100.89
3808.00,100.92
3807.00,100.97
3806.00,100.99
3805.00,100.91
3804.00,100.76
3803.00,100.68
3802.00,100.67
3801.00,100.63
3800.00,100.52
3799.00,100.43
3798.00,100.42
3797.00,100.51
3796.00,100.62
3795.00,100.65
3794.00,100.61
3793.00,100.56
3792.00,100.54
3791.00,100.55
3790.00,100.54
3789.00,100.51
3788.00,100.44
3787.00,100.34
3786.00,100.28
3785.00,100.32
3784.00,100.45
3783.00,100.53
3782.00,100.49
3781.00,100.37
3780.00,100.33
3779.00,100.42
3778.00,100.53
3777.00,100.59
3776.00,100.60
3775.00,100.64
3774.00,100.68
3773.00,100.65
3772.00,100.59
3771.00,100.60
3770.00,100.70
3769.00,100.78
3768.00,100.76
3767.00,100.70
3766.00,100.67
3765.00,100.71
3764.00,100.76
3763.00,100.74
3762.00,100.69
3761.00,100.65
3760.00,100.66
3759.00,100.69
3758.00,100.75
3757.00,100.80
3756.00,100.79
3755.00,100.71
3754.00,100.68
3753.00,100.75
3752.00,100.79
3751.00,100.74
3750.00,100.69
3749.00,100.72
3748.00,100.66
3747.00,100.42
3746.00,100.21
3745.00,100.17
3744.00,100.25
3743.00,100.40
3742.00,100.57
3741.00,100.72
3740.00,100.90
3739.00,101.06
3738.00,101.13
3737.00,101.15
3736.00,101.16
3735.00,101.15
3734.00,101.09
3733.00,101.00
3732.00,100.93
3731.00,100.86
3730.00,100.82
3729.00,100.79
3728.00,100.80
3727.00,100.82
3726.00,100.82
3725.00,100.75
3724.00,100.68
3723.00,100.64
3722.00,100.64
3721.00,100.65
3720.00,100.63
3719.00,100.64
3718.00,100.71
3717.00,100.83
3716.00,100.92
3715.00,100.95
3714.00,100.97
3713.00,100.99
3712.00,100.93
3711.00,100.82
3710.00,100.75
3709.00,100.72
3708.00,100.71
3707.00,100.69
3706.00,100.67
3705.00,100.62
3704.00,100.54
3703.00,100.47
3702.00,100.46
3701.00,100.53
3700.00,100.60
3699.00,100.59
3698.00,100.54
3697.00,100.55
3696.00,100.59
3695.00,100.62
3694.00,100.61
3693.00,100.61
3692.00,100.65
3691.00,100.74
3690.00,100.84
3689.00,100.87
3688.00,100.78
3687.00,100.65
3686.00,100.57
3685.00,100.58
3684.00,100.65
3683.00,100.69
3682.00,100.66
3681.00,100.64
3680.00,100.77
3679.00,101.01
3678.00,101.25
3677.00,101.37
3676.00,101.34
3675.00,101.24
3674.00,101.20
3673.00,101.24
3672.00,101.29
3671.00,101.28
3670.00,101.13
3669.00,100.92
3668.00,100.78
3667.00,100.72
3666.00,100.69
3665.00,100.66
3664.00,100.63
3663.00,100.59
3662.00,100.58
3661.00,100.64
3660.00,100.75
3659.00,100.88
3658.00,100.95
3657.00,101.00
3656.00,101.05
3655.00,101.09
3654.00,101.12
3653.00,101.24
3652.00,101.56
3651.00,101.93
3650.00,101.99
3649.00,101.64
3648.00,101.15
3647.00,100.83
3646.00,100.70
3645.00,100.64
3644.00,100.58
3643.00,100.52
3642.00,100.49
3641.00,100.47
3640.00,100.45
3639.00,100.46
3638.00,100.51
3637.00,100.58
3636.00,100.62
3635.00,100.66
3634.00,100.76
3633.00,100.88
3632.00,101.00
3631.00,101.16
3630.00,101.31
3629.00,101.31
3628.00,101.13
3627.00,100.90
3626.00,100.75
3625.00,100.73
3624.00,100.79
3623.00,100.85
3622.00,100.91
3621.00,100.98
3620.00,101.01
3619.00,100.96
3618.00,100.85
3617.00,100.75
3616.00,100.67
3615.00,100.68
3614.00,100.79
3613.00,100.95
3612.00,101.04
3611.00,100.99
3610.00,100.86
3609.00,100.74
3608.00,100.67
3607.00,100.65
3606.00,100.64
3605.00,100.61
3604.00,100.51
3603.00,100.35
3602.00,100.23
3601.00,100.21
3600.00,100.28
3599.00,100.38
3598.00,100.47
3597.00,100.54
3596.00,100.59
3595.00,100.62
3594.00,100.67
3593.00,100.74
3592.00,100.77
3591.00,100.74
3590.00,100.66
3589.00,100.62
3588.00,100.63
3587.00,100.67
3586.00,100.68
3585.00,100.66
3584.00,100.60
3583.00,100.54
3582.00,100.50
3581.00,100.48
3580.00,100.45
3579.00,100.41
3578.00,100.39
3577.00,100.38
3576.00,100.40
3575.00,100.43
3574.00,100.49
3573.00,100.57
3572.00,100.66
3571.00,100.73
3570.00,100.75
3569.00,100.73
3568.00,100.68
3567.00,100.63
3566.00,100.59
3565.00,100.57
3564.00,100.56
3563.00,100.54
3562.00,100.53
3561.00,100.54
3560.00,100.55
3559.00,100.54
3558.00,100.54
3557.00,100.54
3556.00,100.52
3555.00,100.45
3554.00,100.37
3553.00,100.35
3552.00,100.42
3551.00,100.50
3550.00,100.56
3549.00,100.57
3548.00,100.56
3547.00,100.54
3546.00,100.53
3545.00,100.52
3544.00,100.53
3543.00,100.53
3542.00,100.54
3541.00,100.54
3540.00,100.54
3539.00,100.52
3538.00,100.50
3537.00,100.50
3536.00,100.53
3535.00,100.56
3534.00,100.56
3533.00,100.54
3532.00,100.50
3531.00,100.44
3530.00,100.39
3529.00,100.38
3528.00,100.43
3527.00,100.49
3526.00,100.53
3525.00,100.53
3524.00,100.51
3523.00,100.50
3522.00,100.51
3521.00,100.53
3520.00,100.53
3519.00,100.52
3518.00,100.53
3517.00,100.55
3516.00,100.55
3515.00,100.53
3514.00,100.51
3513.00,100.49
3512.00,100.46
3511.00,100.44
3510.00,100.45
3509.00,100.50
3508.00,100.55
3507.00,100.55
3506.00,100.49
3505.00,100.44
3504.00,100.43
3503.00,100.47
3502.00,100.53
3501.00,100.58
3500.00,100.58
3499.00,100.55
3498.00,100.50
3497.00,100.48
3496.00,100.49
3495.00,100.51
3494.00,100.53
3493.00,100.54
3492.00,100.54
3491.00,100.52
3490.00,100.50
3489.00,100.49
3488.00,100.51
3487.00,100.53
3486.00,100.54
3485.00,100.52
3484.00,100.48
3483.00,100.45
3482.00,100.45
3481.00,100.50
3480.00,100.54
3479.00,100.55
3478.00,100.53
3477.00,100.51
3476.00,100.49
3475.00,100.49
3474.00,100.50
3473.00,100.51
3472.00,100.52
3471.00,100.52
3470.00,100.52
3469.00,100.52
3468.00,100.52
3467.00,100.52
3466.00,100.53
3465.00,100.52
3464.00,100.49
3463.00,100.47
3462.00,100.48
3461.00,100.50
3460.00,100.53
3459.00,100.53
3458.00,100.53
3457.00,100.52
3456.00,100.52
3455.00,100.53
3454.00,100.53
3453.00,100.54
3452.00,100.54
3451.00,100.52
3450.00,100.47
3449.00,100.42
3448.00,100.39
3447.00,100.42
3446.00,100.48
3445.00,100.51
3444.00,100.51
3443.00,100.51
3442.00,100.52
3441.00,100.54
3440.00,100.56
3439.00,100.55
3438.00,100.55
3437.00,100.55
3436.00,100.55
3435.00,100.55
3434.00,100.54
3433.00,100.53
3432.00,100.53
3431.00,100.52
3430.00,100.52
3429.00,100.52
3428.00,100.53
3427.00,100.54
3426.00,100.54
3425.00,100.54
3424.00,100.52
3423.00,100.49
3422.00,100.47
3421.00,100.48
3420.00,100.51
3419.00,100.53
3418.00,100.54
3417.00,100.54
3416.00,100.54
3415.00,100.54
3414.00,100.54
3413.00,100.54
3412.00,100.53
3411.00,100.53
3410.00,100.52
3409.00,100.53
3408.00,100.53
3407.00,100.53
3406.00,100.53
3405.00,100.53
3404.00,100.53
3403.00,100.54
3402.00,100.54
3401.00,100.55
3400.00,100.54
3399.00,100.53
3398.00,100.52
3397.00,100.52
3396.00,100.53
3395.00,100.52
3394.00,100.50
3393.00,100.50
3392.00,100.52
3391.00,100.53
3390.00,100.54
3389.00,100.54
3388.00,100.53
3387.00,100.53
3386.00,100.52
3385.00,100.53
3384.00,100.54
3383.00,100.55
3382.00,100.55
3381.00,100.55
3380.00,100.54
3379.00,100.53
3378.00,100.52
3377.00,100.52
3376.00,100.53
3375.00,100.53
3374.00,100.53
3373.00,100.54
3372.00,100.55
3371.00,100.55
3370.00,100.54
3369.00,100.52
3368.00,100.51
3367.00,100.49
3366.00,100.49
3365.00,100.50
3364.00,100.52
3363.00,100.53
3362.00,100.53
3361.00,100.53
3360.00,100.53
3359.00,100.53
3358.00,100.53
3357.00,100.53
3356.00,100.53
3355.00,100.53
3354.00,100.53
3353.00,100.53
3352.00,100.53
3351.00,100.53
3350.00,100.53
3349.00,100.53
3348.00,100.53
3347.00,100.53
3346.00,100.53
3345.00,100.54
3344.00,100.54
3343.00,100.54
3342.00,100.54
3341.00,100.53
3340.00,100.53
3339.00,100.52
3338.00,100.52
3337.00,100.52
3336.00,100.53
3335.00,100.54
3334.00,100.55
3333.00,100.55
3332.00,100.54
3331.00,100.53
3330.00,100.53
3329.00,100.53
3328.00,100.53
3327.00,100.53
3326.00,100.53
3325.00,100.53
3324.00,100.54
3323.00,100.54
3322.00,100.55
3321.00,100.55
3320.00,100.55
3319.00,100.54
3318.00,100.54
3317.00,100.53
3316.00,100.52
3315.00,100.51
3314.00,100.51
3313.00,100.52
3312.00,100.52
3311.00,100.52
3310.00,100.52
3309.00,100.52
3308.00,100.54
3307.00,100.54
3306.00,100.55
3305.00,100.54
3304.00,100.54
3303.00,100.54
3302.00,100.54
3301.00,100.54
3300.00,100.53
3299.00,100.53
3298.00,100.53
3297.00,100.54
3296.00,100.56
3295.00,100.56
3294.00,100.55
3293.00,100.55
3292.00,100.55
3291.00,100.54
3290.00,100.54
3289.00,100.54
3288.00,100.53
3287.00,100.53
3286.00,100.53
3285.00,100.54
3284.00,100.54
3283.00,100.54
3282.00,100.54
3281.00,100.54
3280.00,100.54
3279.00,100.53
3278.00,100.52
3277.00,100.52
3276.00,100.51
3275.00,100.51
3274.00,100.52
3273.00,100.53
3272.00,100.54
3271.00,100.55
3270.00,100.55
3269.00,100.55
3268.00,100.54
3267.00,100.53
3266.00,100.53
3265.00,100.54
3264.00,100.55
3263.00,100.55
3262.00,100.55
3261.00,100.55
3260.00,100.54
3259.00,100.53
3258.00,100.53
3257.00,100.52
3256.00,100.51
3255.00,100.50
3254.00,100.51
3253.00,100.52
3252.00,100.52
3251.00,100.53
3250.00,100.53
3249.00,100.53
3248.00,100.53
3247.00,100.51
3246.00,100.50
3245.00,100.51
3244.00,100.52
3243.00,100.53
3242.00,100.54
3241.00,100.54
3240.00,100.54
3239.00,100.53
3238.00,100.53
3237.00,100.53
3236.00,100.54
3235.00,100.54
3234.00,100.54
3233.00,100.54
3232.00,100.53
3231.00,100.53
3230.00,100.53
3229.00,100.54
3228.00,100.54
3227.00,100.54
3226.00,100.55
3225.00,100.55
3224.00,100.55
3223.00,100.54
3222.00,100.53
3221.00,100.52
3220.00,100.52
3219.00,100.52
3218.00,100.53
3217.00,100.52
3216.00,100.52
3215.00,100.51
3214.00,100.52
3213.00,100.52
3212.00,100.52
3211.00,100.51
3210.00,100.51
3209.00,100.52
3208.00,100.54
3207.00,100.55
3206.00,100.55
3205.00,100.55
3204.00,100.55
3203.00,100.55
3202.00,100.56
3201.00,100.56
3200.00,100.56
3199.00,100.56
3198.00,100.56
3197.00,100.56
3196.00,100.56
3195.00,100.55
3194.00,100.55
3193.00,100.56
3192.00,100.56
3191.00,100.55
3190.00,100.55
3189.00,100.55
3188.00,100.54
3187.00,100.53
3186.00,100.53
3185.00,100.53
3184.00,100.53
3183.00,100.54
3182.00,100.54
3181.00,100.52
3180.00,100.51
3179.00,100.50
3178.00,100.50
3177.00,100.52
3176.00,100.54
3175.00,100.54
3174.00,100.54
3173.00,100.54
3172.00,100.54
3171.00,100.54
3170.00,100.54
3169.00,100.55
3168.00,100.55
3167.00,100.55
3166.00,100.54
3165.00,100.54
3164.00,100.54
3163.00,100.55
3162.00,100.55
3161.00,100.55
3160.00,100.55
3159.00,100.55
3158.00,100.55
3157.00,100.55
3156.00,100.55
3155.00,100.54
3154.00,100.54
3153.00,100.55
3152.00,100.55
3151.00,100.55
3150.00,100.55
3149.00,100.54
3148.00,100.54
3147.00,100.54
3146.00,100.54
3145.00,100.54
3144.00,100.54
3143.00,100.54
3142.00,100.54
3141.00,100.54
3140.00,100.54
3139.00,100.55
3138.00,100.55
3137.00,100.55
3136.00,100.55
3135.00,100.56
3134.00,100.52
3133.00,100.51
3132.00,100.53
3131.00,100.54
3130.00,100.55
3129.00,100.54
3128.00,100.53
3127.00,100.53
3126.00,100.53
3125.00,100.53
3124.00,100.52
3123.00,100.51
3122.00,100.51
3121.00,100.51
3120.00,100.51
3119.00,100.50
3118.00,100.50
3117.00,100.51
3116.00,100.52
3115.00,100.53
3114.00,100.54
3113.00,100.54
3112.00,100.53
3111.00,100.53
3110.00,100.54
3109.00,100.54
3108.00,100.55
3107.00,100.55
3106.00,100.54
3105.00,100.54
3104.00,100.51
3103.00,100.55
3102.00,100.57
3101.00,100.57
3100.00,100.58
3099.00,100.58
3098.00,100.55
3097.00,100.53
3096.00,100.53
3095.00,100.53
3094.00,100.55
3093.00,100.55
3092.00,100.56
3091.00,100.56
3090.00,100.56
3089.00,100.56
3088.00,100.56
3087.00,100.55
3086.00,100.55
3085.00,100.55
3084.00,100.54
3083.00,100.52
3082.00,100.52
3081.00,100.52
3080.00,100.52
3079.00,100.53
3078.00,100.55
3077.00,100.56
3076.00,100.56
3075.00,100.56
3074.00,100.56
3073.00,100.56
3072.00,100.56
3071.00,100.55
3070.00,100.55
3069.00,100.53
3068.00,100.52
3067.00,100.51
3066.00,100.51
3065.00,100.52
3064.00,100.53
3063.00,100.54
3062.00,100.55
3061.00,100.55
3060.00,100.54
3059.00,100.54
3058.00,100.53
3057.00,100.54
3056.00,100.54
3055.00,100.55
3054.00,100.55
3053.00,100.54
3052.00,100.54
3051.00,100.53
3050.00,100.53
3049.00,100.54
3048.00,100.55
3047.00,100.55
3046.00,100.55
3045.00,100.54
3044.00,100.54
3043.00,100.55
3042.00,100.55
3041.00,100.55
3040.00,100.54
3039.00,100.54
3038.00,100.54
3037.00,100.54
3036.00,100.53
3035.00,100.53
3034.00,100.51
3033.00,100.50
3032.00,100.50
3031.00,100.51
3030.00,100.53
3029.00,100.54
3028.00,100.55
3027.00,100.54
3026.00,100.53
3025.00,100.53
3024.00,100.53
3023.00,100.54
3022.00,100.54
3021.00,100.56
3020.00,100.57
3019.00,100.58
3018.00,100.59
3017.00,100.58
3016.00,100.57
3015.00,100.56
3014.00,100.54
3013.00,100.54
3012.00,100.53
3011.00,100.54
3010.00,100.55
3009.00,100.56
3008.00,100.56
3007.00,100.55
3006.00,100.54
3005.00,100.54
3004.00,100.54
3003.00,100.55
3002.00,100.55
3001.00,100.56
3000.00,100.57
2999.00,100.57
2998.00,100.56
2997.00,100.56
2996.00,100.55
2995.00,100.54
2994.00,100.54
2993.00,100.54
2992.00,100.55
2991.00,100.55
2990.00,100.55
2989.00,100.55
2988.00,100.55
2987.00,100.56
2986.00,100.56
2985.00,100.56
2984.00,100.57
2983.00,100.57
2982.00,100.57
2981.00,100.56
2980.00,100.56
2979.00,100.56
2978.00,100.56
2977.00,100.56
2976.00,100.55
2975.00,100.55
2974.00,100.56
2973.00,100.56
2972.00,100.56
2971.00,100.55
2970.00,100.55
2969.00,100.55
2968.00,100.54
2967.00,100.54
2966.00,100.54
2965.00,100.54
2964.00,100.55
2963.00,100.56
2962.00,100.56
2961.00,100.57
2960.00,100.57
2959.00,100.57
2958.00,100.56
2957.00,100.56
2956.00,100.56
2955.00,100.56
2954.00,100.55
2953.00,100.55
2952.00,100.56
2951.00,100.56
2950.00,100.56
2949.00,100.57
2948.00,100.56
2947.00,100.56
2946.00,100.56
2945.00,100.57
2944.00,100.57
2943.00,100.57
2942.00,100.56
2941.00,100.57
2940.00,100.57
2939.00,100.58
2938.00,100.59
2937.00,100.59
2936.00,100.59
2935.00,100.59
2934.00,100.59
2933.00,100.59
2932.00,100.60
2931.00,100.60
2930.00,100.60
2929.00,100.61
2928.00,100.61
2927.00,100.62
2926.00,100.63
2925.00,100.64
2924.00,100.64
2923.00,100.65
2922.00,100.66
2921.00,100.67
2920.00,100.67
2919.00,100.67
2918.00,100.67
2917.00,100.67
2916.00,100.67
2915.00,100.66
2914.00,100.64
2913.00,100.62
2912.00,100.61
2911.00,100.59
2910.00,100.59
2909.00,100.59
2908.00,100.59
2907.00,100.59
2906.00,100.58
2905.00,100.57
2904.00,100.56
2903.00,100.56
2902.00,100.56
2901.00,100.56
2900.00,100.56
2899.00,100.57
2898.00,100.57
2897.00,100.57
2896.00,100.56
2895.00,100.56
2894.00,100.56
2893.00,100.57
2892.00,100.57
2891.00,100.56
2890.00,100.56
2889.00,100.56
2888.00,100.56
2887.00,100.57
2886.00,100.57
2885.00,100.57
2884.00,100.56
2883.00,100.56
2882.00,100.57
2881.00,100.58
2880.00,100.58
2879.00,100.58
2878.00,100.57
2877.00,100.57
2876.00,100.57
2875.00,100.56
2874.00,100.56
2873.00,100.56
2872.00,100.56
2871.00,100.55
2870.00,100.55
2869.00,100.55
2868.00,100.55
2867.00,100.55
2866.00,100.55
2865.00,100.55
2864.00,100.56
2863.00,100.56
2862.00,100.57
2861.00,100.57
2860.00,100.57
2859.00,100.57
2858.00,100.57
2857.00,100.58
2856.00,100.59
2855.00,100.60
2854.00,100.62
2853.00,100.63
2852.00,100.64
2851.00,100.64
2850.00,100.64
2849.00,100.64
2848.00,100.63
2847.00,100.61
2846.00,100.59
2845.00,100.58
2844.00,100.57
2843.00,100.56
2842.00,100.56
2841.00,100.55
2840.00,100.55
2839.00,100.55
2838.00,100.55
2837.00,100.55
2836.00,100.55
2835.00,100.56
2834.00,100.57
2833.00,100.58
2832.00,100.57
2831.00,100.57
2830.00,100.57
2829.00,100.56
2828.00,100.56
2827.00,100.56
2826.00,100.56
2825.00,100.56
2824.00,100.55
2823.00,100.55
2822.00,100.56
2821.00,100.56
2820.00,100.56
2819.00,100.56
2818.00,100.56
2817.00,100.56
2816.00,100.56
2815.00,100.56
2814.00,100.55
2813.00,100.55
2812.00,100.55
2811.00,100.56
2810.00,100.56
2809.00,100.57
2808.00,100.57
2807.00,100.57
2806.00,100.57
2805.00,100.57
2804.00,100.57
2803.00,100.57
2802.00,100.56
2801.00,100.56
2800.00,100.56
2799.00,100.56
2798.00,100.57
2797.00,100.57
2796.00,100.56
2795.00,100.56
2794.00,100.56
2793.00,100.56
2792.00,100.56
2791.00,100.56
2790.00,100.56
2789.00,100.56
2788.00,100.56
2787.00,100.56
2786.00,100.56
2785.00,100.56
2784.00,100.55
2783.00,100.55
2782.00,100.55
2781.00,100.55
2780.00,100.56
2779.00,100.56
2778.00,100.56
2777.00,100.56
2776.00,100.56
2775.00,100.56
2774.00,100.56
2773.00,100.56
2772.00,100.56
2771.00,100.56
2770.00,100.56
2769.00,100.56
2768.00,100.56
2767.00,100.56
2766.00,100.56
2765.00,100.56
2764.00,100.57
2763.00,100.57
2762.00,100.57
2761.00,100.57
2760.00,100.57
2759.00,100.56
2758.00,100.56
2757.00,100.56
2756.00,100.56
2755.00,100.55
2754.00,100.55
2753.00,100.55
2752.00,100.55
2751.00,100.55
2750.00,100.55
2749.00,100.56
2748.00,100.56
2747.00,100.56
2746.00,100.56
2745.00,100.56
2744.00,100.55
2743.00,100.55
2742.00,100.55
2741.00,100.55
2740.00,100.55
2739.00,100.55
2738.00,100.55
2737.00,100.55
2736.00,100.56
2735.00,100.56
2734.00,100.56
2733.00,100.57
2732.00,100.57
2731.00,100.57
2730.00,100.57
2729.00,100.57
2728.00,100.57
2727.00,100.56
2726.00,100.56
2725.00,100.56
2724.00,100.56
2723.00,100.56
2722.00,100.56
2721.00,100.56
2720.00,100.56
2719.00,100.56
2718.00,100.56
2717.00,100.56
2716.00,100.56
2715.00,100.56
2714.00,100.56
2713.00,100.56
2712.00,100.57
2711.00,100.57
2710.00,100.57
2709.00,100.57
2708.00,100.57
2707.00,100.57
2706.00,100.56
2705.00,100.56
2704.00,100.56
2703.00,100.56
2702.00,100.57
2701.00,100.57
2700.00,100.56
2699.00,100.56
2698.00,100.56
2697.00,100.56
2696.00,100.56
2695.00,100.56
2694.00,100.56
2693.00,100.56
2692.00,100.57
2691.00,100.57
2690.00,100.57
2689.00,100.57
2688.00,100.56
2687.00,100.56
2686.00,100.56
2685.00,100.56
2684.00,100.57
2683.00,100.57
2682.00,100.57
2681.00,100.57
2680.00,100.57
2679.00,100.57
2678.00,100.57
2677.00,100.57
2676.00,100.57
2675.00,100.56
2674.00,100.57
2673.00,100.57
2672.00,100.57
2671.00,100.57
2670.00,100.57
2669.00,100.57
2668.00,100.57
2667.00,100.57
2666.00,100.57
2665.00,100.57
2664.00,100.57
2663.00,100.57
2662.00,100.57
2661.00,100.57
2660.00,100.57
2659.00,100.57
2658.00,100.57
2657.00,100.57
2656.00,100.57
2655.00,100.57
2654.00,100.57
2653.00,100.57
2652.00,100.57
2651.00,100.57
2650.00,100.57
2649.00,100.58
2648.00,100.57
2647.00,100.57
2646.00,100.56
2645.00,100.56
2644.00,100.57
2643.00,100.57
2642.00,100.57
2641.00,100.57
2640.00,100.57
2639.00,100.57
2638.00,100.57
2637.00,100.56
2636.00,100.56
2635.00,100.56
2634.00,100.57
2633.00,100.57
2632.00,100.57
2631.00,100.57
2630.00,100.57
2629.00,100.57
2628.00,100.57
2627.00,100.57
2626.00,100.57
2625.00,100.58
2624.00,100.58
2623.00,100.58
2622.00,100.58
2621.00,100.58
2620.00,100.57
2619.00,100.57
2618.00,100.57
2617.00,100.57
2616.00,100.56
2615.00,100.56
2614.00,100.56
2613.00,100.57
2612.00,100.57
2611.00,100.57
2610.00,100.57
2609.00,100.58
2608.00,100.58
2607.00,100.58
2606.00,100.58
2605.00,100.58
2604.00,100.57
2603.00,100.57
2602.00,100.58
2601.00,100.58
2600.00,100.58
2599.00,100.58
2598.00,100.58
2597.00,100.59
2596.00,100.58
2595.00,100.58
2594.00,100.57
2593.00,100.57
2592.00,100.56
2591.00,100.56
2590.00,100.56
2589.00,100.57
2588.00,100.57
2587.00,100.58
2586.00,100.58
2585.00,100.58
2584.00,100.58
2583.00,100.57
2582.00,100.57
2581.00,100.58
2580.00,100.58
2579.00,100.58
2578.00,100.58
2577.00,100.58
2576.00,100.58
2575.00,100.57
2574.00,100.58
2573.00,100.57
2572.00,100.57
2571.00,100.57
2570.00,100.57
2569.00,100.57
2568.00,100.57
2567.00,100.57
2566.00,100.57
2565.00,100.57
2564.00,100.57
2563.00,100.58
2562.00,100.58
2561.00,100.58
2560.00,100.58
2559.00,100.58
2558.00,100.58
2557.00,100.58
2556.00,100.58
2555.00,100.58
2554.00,100.58
2553.00,100.58
2552.00,100.57
2551.00,100.57
2550.00,100.57
2549.00,100.58
2548.00,100.58
2547.00,100.59
2546.00,100.59
2545.00,100.58
2544.00,100.58
2543.00,100.58
2542.00,100.58
2541.00,100.58
2540.00,100.58
2539.00,100.58
2538.00,100.58
2537.00,100.58
2536.00,100.58
2535.00,100.58
2534.00,100.58
2533.00,100.58
2532.00,100.58
2531.00,100.58
2530.00,100.59
2529.00,100.59
2528.00,100.59
2527.00,100.59
2526.00,100.59
2525.00,100.59
2524.00,100.58
2523.00,100.58
2522.00,100.58
2521.00,100.59
2520.00,100.59
2519.00,100.59
2518.00,100.59
2517.00,100.59
2516.00,100.58
2515.00,100.58
2514.00,100.58
2513.00,100.58
2512.00,100.58
2511.00,100.58
2510.00,100.58
2509.00,100.59
2508.00,100.59
2507.00,100.59
2506.00,100.59
2505.00,100.59
2504.00,100.59
2503.00,100.59
2502.00,100.59
2501.00,100.59
2500.00,100.59
2499.00,100.59
2498.00,100.59
2497.00,100.60
2496.00,100.60
2495.00,100.60
2494.00,100.60
2493.00,100.60
2492.00,100.59
2491.00,100.59
2490.00,100.59
2489.00,100.60
2488.00,100.60
2487.00,100.60
2486.00,100.60
2485.00,100.60
2484.00,100.60
2483.00,100.60
2482.00,100.60
2481.00,100.60
2480.00,100.59
2479.00,100.59
2478.00,100.59
2477.00,100.59
2476.00,100.58
2475.00,100.58
2474.00,100.58
2473.00,100.58
2472.00,100.58
2471.00,100.58
2470.00,100.59
2469.00,100.59
2468.00,100.59
2467.00,100.59
2466.00,100.59
2465.00,100.59
2464.00,100.59
2463.00,100.59
2462.00,100.60
2461.00,100.60
2460.00,100.60
2459.00,100.60
2458.00,100.60
2457.00,100.60
2456.00,100.59
2455.00,100.60
2454.00,100.60
2453.00,100.60
2452.00,100.60
2451.00,100.59
2450.00,100.59
2449.00,100.59
2448.00,100.59
2447.00,100.59
2446.00,100.59
2445.00,100.59
2444.00,100.60
2443.00,100.60
2442.00,100.60
2441.00,100.61
2440.00,100.61
2439.00,100.60
2438.00,100.59
2437.00,100.59
2436.00,100.59
2435.00,100.59
2434.00,100.60
2433.00,100.60
2432.00,100.59
2431.00,100.59
2430.00,100.59
2429.00,100.60
2428.00,100.60
2427.00,100.60
2426.00,100.60
2425.00,100.60
2424.00,100.60
2423.00,100.60
2422.00,100.59
2421.00,100.59
2420.00,100.59
2419.00,100.60
2418.00,100.60
2417.00,100.60
2416.00,100.60
2415.00,100.60
2414.00,100.61
2413.00,100.61
2412.00,100.61
2411.00,100.60
2410.00,100.60
2409.00,100.60
2408.00,100.60
2407.00,100.60
2406.00,100.60
2405.00,100.61
2404.00,100.60
2403.00,100.60
2402.00,100.60
2401.00,100.60
2400.00,100.60
2399.00,100.60
2398.00,100.61
2397.00,100.61
2396.00,100.60
2395.00,100.60
2394.00,100.60
2393.00,100.60
2392.00,100.60
2391.00,100.61
2390.00,100.61
2389.00,100.62
2388.00,100.62
2387.00,100.62
2386.00,100.63
2385.00,100.64
2384.00,100.65
2383.00,100.66
2382.00,100.66
2381.00,100.66
2380.00,100.65
2379.00,100.64
2378.00,100.63
2377.00,100.62
2376.00,100.61
2375.00,100.60
2374.00,100.61
2373.00,100.62
2372.00,100.62
2371.00,100.63
2370.00,100.64
2369.00,100.65
2368.00,100.65
2367.00,100.65
2366.00,100.65
2365.00,100.64
2364.00,100.63
2363.00,100.63
2362.00,100.65
2361.00,100.68
2360.00,100.70
2359.00,100.71
2358.00,100.72
2357.00,100.71
2356.00,100.69
2355.00,100.65
2354.00,100.62
2353.00,100.60
2352.00,100.61
2351.00,100.65
2350.00,100.68
2349.00,100.69
2348.00,100.69
2347.00,100.69
2346.00,100.69
2345.00,100.70
2344.00,100.72
2343.00,100.74
2342.00,100.77
2341.00,100.77
2340.00,100.77
2339.00,100.76
2338.00,100.74
2337.00,100.72
2336.00,100.70
2335.00,100.70
2334.00,100.70
2333.00,100.69
2332.00,100.70
2331.00,100.71
2330.00,100.71
2329.00,100.72
2328.00,100.72
2327.00,100.74
2326.00,100.75
2325.00,100.75
2324.00,100.75
2323.00,100.75
2322.00,100.75
2321.00,100.74
2320.00,100.74
2319.00,100.73
2318.00,100.73
2317.00,100.72
2316.00,100.71
2315.00,100.71
2314.00,100.71
2313.00,100.70
2312.00,100.69
2311.00,100.69
2310.00,100.68
2309.00,100.68
2308.00,100.68
2307.00,100.68
2306.00,100.68
2305.00,100.67
2304.00,100.67
2303.00,100.67
2302.00,100.68
2301.00,100.67
2300.00,100.66
2299.00,100.66
2298.00,100.65
2297.00,100.65
2296.00,100.64
2295.00,100.64
2294.00,100.64
2293.00,100.64
2292.00,100.63
2291.00,100.63
2290.00,100.63
2289.00,100.62
2288.00,100.62
2287.00,100.63
2286.00,100.63
2285.00,100.63
2284.00,100.62
2283.00,100.62
2282.00,100.62
2281.00,100.62
2280.00,100.62
2279.00,100.62
2278.00,100.62
2277.00,100.61
2276.00,100.61
2275.00,100.62
2274.00,100.62
2273.00,100.62
2272.00,100.62
2271.00,100.62
2270.00,100.62
2269.00,100.63
2268.00,100.63
2267.00,100.63
2266.00,100.63
2265.00,100.63
2264.00,100.63
2263.00,100.63
2262.00,100.63
2261.00,100.62
2260.00,100.62
2259.00,100.62
2258.00,100.62
2257.00,100.62
2256.00,100.62
2255.00,100.63
2254.00,100.63
2253.00,100.63
2252.00,100.63
2251.00,100.63
2250.00,100.63
2249.00,100.63
2248.00,100.63
2247.00,100.62
2246.00,100.62
2245.00,100.63
2244.00,100.63
2243.00,100.64
2242.00,100.64
2241.00,100.63
2240.00,100.63
2239.00,100.63
2238.00,100.63
2237.00,100.64
2236.00,100.64
2235.00,100.64
2234.00,100.64
2233.00,100.64
2232.00,100.63
2231.00,100.63
2230.00,100.63
2229.00,100.63
2228.00,100.63
2227.00,100.63
2226.00,100.63
2225.00,100.63
2224.00,100.63
2223.00,100.63
2222.00,100.64
2221.00,100.64
2220.00,100.64
2219.00,100.64
2218.00,100.64
2217.00,100.64
2216.00,100.64
2215.00,100.64
2214.00,100.64
2213.00,100.63
2212.00,100.62
2211.00,100.63
2210.00,100.63
2209.00,100.64
2208.00,100.64
2207.00,100.64
2206.00,100.64
2205.00,100.64
2204.00,100.64
2203.00,100.64
2202.00,100.64
2201.00,100.63
2200.00,100.63
2199.00,100.63
2198.00,100.63
2197.00,100.63
2196.00,100.63
2195.00,100.64
2194.00,100.65
2193.00,100.65
2192.00,100.65
2191.00,100.65
2190.00,100.66
2189.00,100.66
2188.00,100.65
2187.00,100.65
2186.00,100.65
2185.00,100.65
2184.00,100.65
2183.00,100.64
2182.00,100.64
2181.00,100.64
2180.00,100.64
2179.00,100.64
2178.00,100.64
2177.00,100.63
2176.00,100.63
2175.00,100.64
2174.00,100.64
2173.00,100.64
2172.00,100.63
2171.00,100.63
2170.00,100.64
2169.00,100.64
2168.00,100.64
2167.00,100.64
2166.00,100.65
2165.00,100.65
2164.00,100.65
2163.00,100.65
2162.00,100.65
2161.00,100.65
2160.00,100.64
2159.00,100.64
2158.00,100.64
2157.00,100.64
2156.00,100.64
2155.00,100.65
2154.00,100.65
2153.00,100.65
2152.00,100.65
2151.00,100.65
2150.00,100.65
2149.00,100.65
2148.00,100.64
2147.00,100.64
2146.00,100.65
2145.00,100.65
2144.00,100.65
2143.00,100.65
2142.00,100.65
2141.00,100.65
2140.00,100.64
2139.00,100.64
2138.00,100.65
2137.00,100.64
2136.00,100.64
2135.00,100.65
2134.00,100.65
2133.00,100.65
2132.00,100.65
2131.00,100.65
2130.00,100.65
2129.00,100.64
2128.00,100.64
2127.00,100.64
2126.00,100.65
2125.00,100.64
2124.00,100.64
2123.00,100.64
2122.00,100.65
2121.00,100.65
2120.00,100.65
2119.00,100.65
2118.00,100.65
2117.00,100.65
2116.00,100.65
2115.00,100.65
2114.00,100.66
2113.00,100.66
2112.00,100.66
2111.00,100.66
2110.00,100.66
2109.00,100.65
2108.00,100.65
2107.00,100.65
2106.00,100.65
2105.00,100.65
2104.00,100.65
2103.00,100.65
2102.00,100.66
2101.00,100.66
2100.00,100.66
2099.00,100.65
2098.00,100.65
2097.00,100.65
2096.00,100.65
2095.00,100.65
2094.00,100.66
2093.00,100.66
2092.00,100.65
2091.00,100.65
2090.00,100.65
2089.00,100.66
2088.00,100.66
2087.00,100.66
2086.00,100.66
2085.00,100.65
2084.00,100.65
2083.00,100.65
2082.00,100.65
2081.00,100.66
2080.00,100.66
2079.00,100.67
2078.00,100.67
2077.00,100.66
2076.00,100.66
2075.00,100.65
2074.00,100.65
2073.00,100.65
2072.00,100.66
2071.00,100.66
2070.00,100.67
2069.00,100.67
2068.00,100.66
2067.00,100.64
2066.00,100.63
2065.00,100.63
2064.00,100.64
2063.00,100.65
2062.00,100.66
2061.00,100.66
2060.00,100.66
2059.00,100.67
2058.00,100.68
2057.00,100.67
2056.00,100.67
2055.00,100.66
2054.00,100.66
2053.00,100.65
2052.00,100.65
2051.00,100.65
2050.00,100.66
2049.00,100.66
2048.00,100.65
2047.00,100.66
2046.00,100.66
2045.00,100.66
2044.00,100.65
2043.00,100.64
2042.00,100.64
2041.00,100.65
2040.00,100.65
2039.00,100.66
2038.00,100.67
2037.00,100.67
2036.00,100.67
2035.00,100.67
2034.00,100.67
2033.00,100.67
2032.00,100.67
2031.00,100.67
2030.00,100.67
2029.00,100.67
2028.00,100.66
2027.00,100.66
2026.00,100.66
2025.00,100.66
2024.00,100.67
2023.00,100.67
2022.00,100.68
2021.00,100.67
2020.00,100.64
2019.00,100.62
2018.00,100.60
2017.00,100.60
2016.00,100.63
2015.00,100.65
2014.00,100.67
2013.00,100.67
2012.00,100.67
2011.00,100.67
2010.00,100.67
2009.00,100.67
2008.00,100.67
2007.00,100.67
2006.00,100.67
2005.00,100.67
2004.00,100.67
2003.00,100.67
2002.00,100.67
2001.00,100.66
2000.00,100.65
1999.00,100.65
1998.00,100.66
1997.00,100.67
1996.00,100.67
1995.00,100.65
1994.00,100.61
1993.00,100.58
1992.00,100.59
1991.00,100.62
1990.00,100.64
1989.00,100.64
1988.00,100.64
1987.00,100.66
1986.00,100.68
1985.00,100.69
1984.00,100.68
1983.00,100.68
1982.00,100.68
1981.00,100.68
1980.00,100.68
1979.00,100.68
1978.00,100.68
1977.00,100.67
1976.00,100.67
1975.00,100.68
1974.00,100.68
1973.00,100.68
1972.00,100.68
1971.00,100.67
1970.00,100.63
1969.00,100.58
1968.00,100.55
1967.00,100.56
1966.00,100.61
1965.00,100.65
1964.00,100.67
1963.00,100.67
1962.00,100.67
1961.00,100.67
1960.00,100.67
1959.00,100.68
1958.00,100.68
1957.00,100.66
1956.00,100.65
1955.00,100.66
1954.00,100.67
1953.00,100.68
1952.00,100.68
1951.00,100.69
1950.00,100.68
1949.00,100.65
1948.00,100.62
1947.00,100.59
1946.00,100.56
1945.00,100.52
1944.00,100.48
1943.00,100.49
1942.00,100.55
1941.00,100.63
1940.00,100.69
1939.00,100.71
1938.00,100.70
1937.00,100.69
1936.00,100.69
1935.00,100.68
1934.00,100.68
1933.00,100.67
1932.00,100.67
1931.00,100.68
1930.00,100.68
1929.00,100.68
1928.00,100.68
1927.00,100.69
1926.00,100.66
1925.00,100.59
1924.00,100.52
1923.00,100.53
1922.00,100.60
1921.00,100.63
1920.00,100.61
1919.00,100.58
1918.00,100.58
1917.00,100.63
1916.00,100.69
1915.00,100.72
1914.00,100.72
1913.00,100.68
1912.00,100.62
1911.00,100.56
1910.00,100.52
1909.00,100.53
1908.00,100.57
1907.00,100.63
1906.00,100.67
1905.00,100.67
1904.00,100.66
1903.00,100.67
1902.00,100.69
1901.00,100.68
1900.00,100.68
1899.00,100.68
1898.00,100.66
1897.00,100.61
1896.00,100.56
1895.00,100.59
1894.00,100.65
1893.00,100.68
1892.00,100.65
1891.00,100.60
1890.00,100.59
1889.00,100.61
1888.00,100.64
1887.00,100.67
1886.00,100.67
1885.00,100.65
1884.00,100.64
1883.00,100.68
1882.00,100.70
1881.00,100.70
1880.00,100.70
1879.00,100.71
1878.00,100.72
1877.00,100.72
1876.00,100.70
1875.00,100.71
1874.00,100.74
1873.00,100.74
1872.00,100.70
1871.00,100.63
1870.00,100.53
1869.00,100.41
1868.00,100.35
1867.00,100.42
1866.00,100.55
1865.00,100.65
1864.00,100.69
1863.00,100.70
1862.00,100.71
1861.00,100.69
1860.00,100.66
1859.00,100.66
1858.00,100.68
1857.00,100.69
1856.00,100.68
1855.00,100.69
1854.00,100.69
1853.00,100.70
1852.00,100.71
1851.00,100.71
1850.00,100.71
1849.00,100.69
1848.00,100.64
1847.00,100.55
1846.00,100.46
1845.00,100.42
1844.00,100.46
1843.00,100.59
1842.00,100.71
1841.00,100.76
1840.00,100.72
1839.00,100.65
1838.00,100.61
1837.00,100.61
1836.00,100.64
1835.00,100.71
1834.00,100.76
1833.00,100.73
1832.00,100.63
1831.00,100.50
1830.00,100.44
1829.00,100.48
1828.00,100.57
1827.00,100.63
1826.00,100.65
1825.00,100.65
1824.00,100.67
1823.00,100.71
1822.00,100.73
1821.00,100.73
1820.00,100.71
1819.00,100.70
1818.00,100.72
1817.00,100.72
1816.00,100.71
1815.00,100.71
1814.00,100.68
1813.00,100.61
1812.00,100.51
1811.00,100.49
1810.00,100.55
1809.00,100.61
1808.00,100.63
1807.00,100.67
1806.00,100.71
1805.00,100.73
1804.00,100.74
1803.00,100.73
1802.00,100.70
1801.00,100.65
1800.00,100.59
1799.00,100.58
1798.00,100.59
1797.00,100.58
1796.00,100.59
1795.00,100.68
1794.00,100.83
1793.00,100.93
1792.00,100.92
1791.00,100.88
1790.00,100.86
1789.00,100.84
1788.00,100.79
1787.00,100.77
1786.00,100.77
1785.00,100.74
1784.00,100.67
1783.00,100.56
1782.00,100.44
1781.00,100.39
1780.00,100.45
1779.00,100.59
1778.00,100.68
1777.00,100.71
1776.00,100.70
1775.00,100.71
1774.00,100.74
1773.00,100.76
1772.00,100.75
1771.00,100.75
1770.00,100.81
1769.00,100.86
1768.00,100.86
1767.00,100.84
1766.00,100.85
1765.00,100.87
1764.00,100.89
1763.00,100.89
1762.00,100.91
1761.00,100.91
1760.00,100.89
1759.00,100.86
1758.00,100.86
1757.00,100.91
1756.00,100.94
1755.00,100.93
1754.00,100.93
1753.00,100.97
1752.00,101.00
1751.00,100.89
1750.00,100.66
1749.00,100.46
1748.00,100.38
1747.00,100.38
1746.00,100.40
1745.00,100.45
1744.00,100.50
1743.00,100.59
1742.00,100.69
1741.00,100.77
1740.00,100.79
1739.00,100.80
1738.00,100.81
1737.00,100.80
1736.00,100.85
1735.00,101.00
1734.00,101.02
1733.00,100.85
1732.00,100.66
1731.00,100.56
1730.00,100.55
1729.00,100.61
1728.00,100.70
1727.00,100.75
1726.00,100.73
1725.00,100.69
1724.00,100.67
1723.00,100.73
1722.00,100.79
1721.00,100.74
1720.00,100.64
1719.00,100.72
1718.00,100.96
1717.00,101.07
1716.00,100.98
1715.00,100.91
1714.00,100.88
1713.00,100.80
1712.00,100.69
1711.00,100.65
1710.00,100.66
1709.00,100.63
1708.00,100.54
1707.00,100.50
1706.00,100.62
1705.00,100.76
1704.00,100.78
1703.00,100.64
1702.00,100.53
1701.00,100.55
1700.00,100.54
1699.00,100.55
1698.00,100.57
1697.00,100.48
1696.00,100.37
1695.00,100.42
1694.00,100.62
1693.00,100.79
1692.00,100.77
1691.00,100.67
1690.00,100.65
1689.00,100.73
1688.00,100.79
1687.00,100.75
1686.00,100.74
1685.00,100.84
1684.00,100.89
1683.00,100.85
1682.00,100.77
1681.00,100.73
1680.00,100.75
1679.00,100.80
1678.00,100.79
1677.00,100.79
1676.00,100.81
1675.00,100.79
1674.00,100.69
1673.00,100.59
1672.00,100.47
1671.00,100.36
1670.00,100.31
1669.00,100.36
1668.00,100.54
1667.00,100.73
1666.00,100.82
1665.00,100.81
1664.00,100.76
1663.00,100.72
1662.00,100.71
1661.00,100.76
1660.00,100.85
1659.00,100.91
1658.00,100.93
1657.00,100.91
1656.00,100.76
1655.00,100.64
1654.00,100.61
1653.00,100.43
1652.00,100.25
1651.00,100.42
1650.00,100.67
1649.00,100.73
1648.00,100.76
1647.00,100.85
1646.00,100.92
1645.00,100.88
1644.00,100.83
1643.00,100.81
1642.00,100.78
1641.00,100.74
1640.00,100.67
1639.00,100.56
1638.00,100.48
1637.00,100.52
1636.00,100.60
1635.00,100.63
1634.00,100.67
1633.00,100.77
1632.00,100.84
1631.00,100.83
1630.00,100.73
1629.00,100.63
1628.00,100.61
1627.00,100.67
1626.00,100.74
1625.00,100.73
1624.00,100.68
1623.00,100.64
1622.00,100.66
1621.00,100.74
1620.00,100.79
1619.00,100.75
1618.00,100.67
1617.00,100.62
1616.00,100.64
1615.00,100.72
1614.00,100.78
1613.00,100.78
1612.00,100.73
1611.00,100.64
1610.00,100.52
1609.00,100.45
1608.00,100.49
1607.00,100.57
1606.00,100.59
1605.00,100.59
1604.00,100.60
1603.00,100.59
1602.00,100.58
1601.00,100.64
1600.00,100.72
1599.00,100.74
1598.00,100.68
1597.00,100.61
1596.00,100.57
1595.00,100.56
1594.00,100.58
1593.00,100.64
1592.00,100.69
1591.00,100.71
1590.00,100.71
1589.00,100.72
1588.00,100.76
1587.00,100.78
1586.00,100.76
1585.00,100.76
1584.00,100.80
1583.00,100.81
1582.00,100.78
1581.00,100.79
1580.00,100.78
1579.00,100.66
1578.00,100.50
1577.00,100.47
1576.00,100.55
1575.00,100.66
1574.00,100.77
1573.00,100.85
1572.00,100.83
1571.00,100.73
1570.00,100.62
1569.00,100.63
1568.00,100.72
1567.00,100.75
1566.00,100.69
1565.00,100.71
1564.00,100.84
1563.00,100.90
1562.00,100.88
1561.00,101.07
1560.00,101.39
1559.00,101.24
1558.00,100.80
1557.00,100.73
1556.00,101.04
1555.00,101.28
1554.00,101.31
1553.00,101.24
1552.00,101.15
1551.00,101.04
1550.00,100.98
1549.00,101.03
1548.00,101.17
1547.00,101.27
1546.00,101.28
1545.00,101.20
1544.00,101.08
1543.00,101.03
1542.00,101.15
1541.00,101.29
1540.00,101.23
1539.00,100.94
1538.00,100.76
1537.00,100.84
1536.00,100.95
1535.00,100.97
1534.00,100.93
1533.00,100.89
1532.00,100.89
1531.00,100.89
1530.00,100.88
1529.00,100.89
1528.00,100.97
1527.00,101.12
1526.00,101.22
1525.00,101.22
1524.00,101.12
1523.00,101.01
1522.00,100.95
1521.00,100.91
1520.00,100.88
1519.00,100.88
1518.00,100.87
1517.00,100.88
1516.00,100.95
1515.00,101.07
1514.00,101.18
1513.00,101.21
1512.00,101.15
1511.00,101.08
1510.00,101.03
1509.00,101.06
1508.00,101.19
1507.00,101.29
1506.00,101.18
1505.00,101.00
1504.00,100.93
1503.00,100.90
1502.00,100.83
1501.00,100.74
1500.00,100.66
1499.00,100.68
1498.00,100.86
1497.00,101.04
1496.00,101.08
1495.00,101.04
1494.00,101.05
1493.00,101.06
1492.00,101.04
1491.00,101.03
1490.00,101.03
1489.00,100.97
1488.00,100.87
1487.00,100.84
1486.00,100.86
1485.00,100.85
1484.00,100.81
1483.00,100.76
1482.00,100.73
1481.00,100.76
1480.00,100.83
1479.00,100.90
1478.00,100.94
1477.00,100.98
1476.00,101.10
1475.00,101.32
1474.00,101.51
1473.00,101.52
1472.00,101.32
1471.00,101.12
1470.00,101.03
1469.00,100.99
1468.00,100.96
1467.00,100.95
1466.00,100.97
1465.00,101.01
1464.00,101.01
1463.00,101.00
1462.00,100.98
1461.00,100.92
1460.00,100.80
1459.00,100.72
1458.00,100.79
1457.00,100.85
1456.00,100.81
1455.00,100.80
1454.00,100.86
1453.00,100.91
1452.00,100.92
1451.00,100.91
1450.00,100.94
1449.00,100.96
1448.00,100.94
1447.00,100.88
1446.00,100.83
1445.00,100.86
1444.00,100.86
1443.00,100.83
1442.00,100.83
1441.00,100.89
1440.00,100.87
1439.00,100.75
1438.00,100.67
1437.00,100.69
1436.00,100.72
1435.00,100.73
1434.00,100.78
1433.00,100.83
1432.00,100.80
1431.00,100.72
1430.00,100.70
1429.00,100.76
1428.00,100.83
1427.00,100.81
1426.00,100.73
1425.00,100.68
1424.00,100.71
1423.00,100.72
1422.00,100.71
1421.00,100.69
1420.00,100.67
1419.00,100.64
1418.00,100.69
1417.00,100.82
1416.00,100.89
1415.00,100.84
1414.00,100.78
1413.00,100.78
1412.00,100.78
1411.00,100.75
1410.00,100.75
1409.00,100.81
1408.00,100.84
1407.00,100.81
1406.00,100.77
1405.00,100.78
1404.00,100.82
1403.00,100.84
1402.00,100.84
1401.00,100.87
1400.00,100.90
1399.00,100.91
1398.00,100.90
1397.00,100.90
1396.00,100.93
1395.00,100.93
1394.00,100.89
1393.00,100.87
1392.00,100.85
1391.00,100.81
1390.00,100.79
1389.00,100.81
1388.00,100.84
1387.00,100.82
1386.00,100.79
1385.00,100.78
1384.00,100.77
1383.00,100.76
1382.00,100.73
1381.00,100.72
1380.00,100.72
1379.00,100.72
1378.00,100.69
1377.00,100.65
1376.00,100.63
1375.00,100.63
1374.00,100.67
1373.00,100.73
1372.00,100.77
1371.00,100.74
1370.00,100.67
1369.00,100.65
1368.00,100.68
1367.00,100.73
1366.00,100.75
1365.00,100.74
1364.00,100.73
1363.00,100.75
1362.00,100.79
1361.00,100.82
1360.00,100.82
1359.00,100.78
1358.00,100.73
1357.00,100.69
1356.00,100.67
1355.00,100.66
1354.00,100.67
1353.00,100.69
1352.00,100.69
1351.00,100.67
1350.00,100.64
1349.00,100.64
1348.00,100.67
1347.00,100.69
1346.00,100.69
1345.00,100.70
1344.00,100.72
1343.00,100.71
1342.00,100.68
1341.00,100.66
1340.00,100.68
1339.00,100.71
1338.00,100.72
1337.00,100.73
1336.00,100.74
1335.00,100.73
1334.00,100.72
1333.00,100.72
1332.00,100.72
1331.00,100.70
1330.00,100.68
1329.00,100.68
1328.00,100.69
1327.00,100.69
1326.00,100.69
1325.00,100.69
1324.00,100.70
1323.00,100.69
1322.00,100.66
1321.00,100.63
1320.00,100.60
1319.00,100.60
1318.00,100.62
1317.00,100.67
1316.00,100.71
1315.00,100.71
1314.00,100.69
1313.00,100.69
1312.00,100.69
1311.00,100.68
1310.00,100.66
1309.00,100.67
1308.00,100.68
1307.00,100.69
1306.00,100.70
1305.00,100.71
1304.00,100.71
1303.00,100.70
1302.00,100.69
1301.00,100.68
1300.00,100.68
1299.00,100.67
1298.00,100.67
1297.00,100.68
1296.00,100.69
1295.00,100.67
1294.00,100.66
1293.00,100.66
1292.00,100.67
1291.00,100.68
1290.00,100.67
1289.00,100.68
1288.00,100.68
1287.00,100.67
1286.00,100.66
1285.00,100.66
1284.00,100.67
1283.00,100.67
1282.00,100.66
1281.00,100.66
1280.00,100.66
1279.00,100.65
1278.00,100.64
1277.00,100.65
1276.00,100.66
1275.00,100.66
1274.00,100.63
1273.00,100.61
1272.00,100.60
1271.00,100.60
1270.00,100.60
1269.00,100.61
1268.00,100.62
1267.00,100.62
1266.00,100.60
1265.00,100.60
1264.00,100.60
1263.00,100.58
1262.00,100.56
1261.00,100.55
1260.00,100.56
1259.00,100.57
1258.00,100.58
1257.00,100.59
1256.00,100.60
1255.00,100.60
1254.00,100.60
1253.00,100.61
1252.00,100.62
1251.00,100.63
1250.00,100.62
1249.00,100.63
1248.00,100.63
1247.00,100.62
1246.00,100.59
1245.00,100.59
1244.00,100.60
1243.00,100.61
1242.00,100.61
1241.00,100.63
1240.00,100.63
1239.00,100.62
1238.00,100.60
1237.00,100.59
1236.00,100.60
1235.00,100.59
1234.00,100.58
1233.00,100.59
1232.00,100.60
1231.00,100.59
1230.00,100.58
1229.00,100.58
1228.00,100.59
1227.00,100.59
1226.00,100.59
1225.00,100.60
1224.00,100.61
1223.00,100.61
1222.00,100.60
1221.00,100.59
1220.00,100.59
1219.00,100.57
1218.00,100.56
1217.00,100.57
1216.00,100.58
1215.00,100.57
1214.00,100.56
1213.00,100.56
1212.00,100.56
1211.00,100.56
1210.00,100.56
1209.00,100.56
1208.00,100.57
1207.00,100.56
1206.00,100.54
1205.00,100.54
1204.00,100.54
1203.00,100.53
1202.00,100.52
1201.00,100.53
1200.00,100.53
1199.00,100.52
1198.00,100.51
1197.00,100.51
1196.00,100.51
1195.00,100.50
1194.00,100.50
1193.00,100.51
1192.00,100.52
1191.00,100.52
1190.00,100.50
1189.00,100.50
1188.00,100.49
1187.00,100.47
1186.00,100.45
1185.00,100.45
1184.00,100.46
1183.00,100.46
1182.00,100.45
1181.00,100.46
1180.00,100.46
1179.00,100.45
1178.00,100.43
1177.00,100.43
1176.00,100.43
1175.00,100.42
1174.00,100.42
1173.00,100.43
1172.00,100.44
1171.00,100.44
1170.00,100.42
1169.00,100.41
1168.00,100.41
1167.00,100.40
1166.00,100.39
1165.00,100.40
1164.00,100.41
1163.00,100.41
1162.00,100.41
1161.00,100.42
1160.00,100.44
1159.00,100.44
1158.00,100.43
1157.00,100.44
1156.00,100.44
1155.00,100.43
1154.00,100.42
1153.00,100.43
1152.00,100.44
1151.00,100.44
1150.00,100.43
1149.00,100.43
1148.00,100.43
1147.00,100.41
1146.00,100.39
1145.00,100.37
1144.00,100.35
1143.00,100.32
1142.00,100.30
1141.00,100.32
1140.00,100.35
1139.00,100.35
1138.00,100.34
1137.00,100.33
1136.00,100.33
1135.00,100.33
1134.00,100.32
1133.00,100.33
1132.00,100.34
1131.00,100.33
1130.00,100.31
1129.00,100.30
1128.00,100.29
1127.00,100.27
1126.00,100.25
1125.00,100.27
1124.00,100.29
1123.00,100.29
1122.00,100.27
1121.00,100.27
1120.00,100.28
1119.00,100.27
1118.00,100.26
1117.00,100.25
1116.00,100.25
1115.00,100.23
1114.00,100.21
1113.00,100.22
1112.00,100.23
1111.00,100.23
1110.00,100.23
1109.00,100.24
1108.00,100.25
1107.00,100.23
1106.00,100.21
1105.00,100.20
1104.00,100.20
1103.00,100.17
1102.00,100.14
1101.00,100.13
1100.00,100.15
1099.00,100.14
1098.00,100.14
1097.00,100.15
1096.00,100.16
1095.00,100.15
1094.00,100.13
1093.00,100.12
1092.00,100.11
1091.00,100.08
1090.00,100.04
1089.00,100.04
1088.00,100.07
1087.00,100.07
1086.00,100.06
1085.00,100.05
1084.00,100.04
1083.00,100.01
1082.00,99.97
1081.00,99.96
1080.00,99.98
1079.00,99.99
1078.00,99.99
1077.00,100.01
1076.00,100.02
1075.00,99.99
1074.00,99.96
1073.00,99.97
1072.00,99.98
1071.00,99.98
1070.00,99.98
1069.00,100.02
1068.00,100.05
1067.00,100.03
1066.00,99.98
1065.00,99.96
1064.00,99.95
1063.00,99.94
1062.00,99.93
1061.00,99.93
1060.00,99.92
1059.00,99.89
1058.00,99.86
1057.00,99.87
1056.00,99.90
1055.00,99.89
1054.00,99.87
1053.00,99.87
1052.00,99.88
1051.00,99.87
1050.00,99.83
1049.00,99.80
1048.00,99.78
1047.00,99.74
1046.00,99.72
1045.00,99.76
1044.00,99.82
1043.00,99.85
1042.00,99.85
1041.00,99.85
1040.00,99.85
1039.00,99.83
1038.00,99.82
1037.00,99.85
1036.00,99.87
1035.00,99.83
1034.00,99.76
1033.00,99.70
1032.00,99.64
1031.00,99.57
1030.00,99.54
1029.00,99.59
1028.00,99.68
1027.00,99.73
1026.00,99.75
1025.00,99.77
1024.00,99.77
1023.00,99.72
1022.00,99.66
1021.00,99.63
1020.00,99.59
1019.00,99.52
1018.00,99.49
1017.00,99.53
1016.00,99.57
1015.00,99.54
1014.00,99.49
1013.00,99.52
1012.00,99.58
1011.00,99.62
1010.00,99.63
1009.00,99.64
1008.00,99.62
1007.00,99.54
1006.00,99.46
1005.00,99.43
1004.00,99.41
1003.00,99.36
1002.00,99.30
1001.00,99.33
1000.00,99.40
999.00,99.45
998.00,99.47
997.00,99.50
996.00,99.49
995.00,99.41
994.00,99.31
993.00,99.28
992.00,99.30
991.00,99.31
990.00,99.36
989.00,99.45
988.00,99.51
987.00,99.44
986.00,99.32
985.00,99.29
984.00,99.32
983.00,99.29
982.00,99.22
981.00,99.15
980.00,99.08
979.00,98.97
978.00,98.92
977.00,99.02
976.00,99.18
975.00,99.25
974.00,99.26
973.00,99.29
972.00,99.32
971.00,99.23
970.00,99.06
969.00,98.93
968.00,98.83
967.00,98.73
966.00,98.68
965.00,98.77
964.00,98.87
963.00,98.84
962.00,98.76
961.00,98.76
960.00,98.79
959.00,98.75
958.00,98.73
957.00,98.86
956.00,98.99
955.00,98.95
954.00,98.85
953.00,98.88
952.00,98.98
951.00,98.99
950.00,98.98
949.00,99.08
948.00,99.16
947.00,99.03
946.00,98.85
945.00,98.82
944.00,98.77
943.00,98.57
942.00,98.43
941.00,98.55
940.00,98.61
939.00,98.21
938.00,97.68
937.00,97.57
936.00,97.91
935.00,98.38
934.00,98.95
933.00,99.72
932.00,100.33
931.00,100.33
930.00,100.01
929.00,99.97
928.00,99.98
927.00,99.51
926.00,98.78
925.00,98.34
924.00,98.09
923.00,97.67
922.00,97.37
921.00,97.66
920.00,98.23
919.00,98.56
918.00,98.89
917.00,99.55
916.00,99.71
915.00,98.55
914.00,96.97
913.00,96.35
912.00,96.58
911.00,96.65
910.00,96.58
909.00,96.99
908.00,97.34
907.00,97.03
906.00,97.14
905.00,98.76
904.00,100.41
903.00,100.05
902.00,98.79
901.00,98.51
900.00,98.29
899.00,96.92
898.00,95.87
897.00,97.15
896.00,98.69
895.00,96.74
894.00,93.33
893.00,92.32
892.00,94.14
891.00,96.84
890.00,97.39
889.00,97.21
888.00,94.85
887.00,88.11
886.00,83.95
885.00,85.71
884.00,90.01
883.00,92.68
882.00,92.47
881.00,94.33
880.00,99.58
879.00,101.37
878.00,100.42
877.00,105.56
876.00,116.63
875.00,129.91
874.00,136.29
873.00,171.72
872.00,212.14
871.00,168.08
870.00,123.91
869.00,118.74
868.00,127.52
867.00,146.15
866.00,128.43
865.00,116.07
864.00,101.27
863.00,89.03
862.00,84.51
861.00,68.84
860.00,77.16
859.00,74.19
858.00,104.98
857.00,208.59
856.00,159.79
855.00,344.05
854.00,239.89
853.00,141.88
852.00,69.83
851.00,82.34
850.00,222.45
849.00,378.83
848.00,75.66
847.00,80.86
846.00,220.11
845.00,173.52
844.00,66.52
843.00,186.02
842.00,131.67
841.00,72.49
840.00,33.21
839.00,27.23
838.00,58.82
837.00,69.16
836.00,47.17
835.00,34.11
834.00,39.74
833.00,25.43
832.00,68.53
831.00,23.77
830.00,33.07
829.00,38.30
828.00,77.62
827.00,110.25
826.00,109.00
825.00,231.58
824.00,74.59
823.00,28.08
822.00,60.41
821.00,21.42
820.00,19.66
819.00,72.91
818.00,261.14
817.00,134.15
816.00,27.71
815.00,72.92
814.00,84.64
813.00,159.76
812.00,72.40
811.00,47.35
810.00,68.24
809.00,59.46
808.00,65.76
807.00,43.75
806.00,55.22
805.00,113.99
804.00,44.03
803.00,25.51
802.00,82.56
801.00,26.14
800.00,2.87
799.00,31.70
798.00,155.48
797.00,88.80
796.00,79.88
795.00,91.31
794.00,65.92
793.00,63.54
792.00,106.77
791.00,64.24
790.00,73.23
789.00,95.95
788.00,125.59
787.00,236.76
786.00,187.35
785.00,264.88
784.00,129.78
783.00,135.17
782.00,162.66
781.00,82.08
780.00,36.37
779.00,62.82
778.00,120.24
777.00,88.72
776.00,97.83
775.00,163.58
774.00,260.92
773.00,634.47
772.00,148.99
771.00,248.16
770.00,138.72
769.00,97.41
768.00,82.96
767.00,38.32
766.00,85.43
765.00,41.48
764.00,29.60
763.00,13.91
762.00,33.18
761.00,49.77
760.00,16.72
759.00,232.62
758.00,547.90
757.00,185.15
756.00,25.57
755.00,18.67
754.00,1.57
753.00,29.93
752.00,53.10
751.00,39.16
750.00,74.59
749.00,141.98
748.00,186.95
747.00,237.10
746.00,184.29
745.00,412.60
744.00,91.84
743.00,171.26
742.00,646.24
741.00,316.23
740.00,117.12
739.00,312.31
738.00,232.78
737.00,380.70
736.00,124.93
735.00,141.78
734.00,155.19
733.00,56.81
732.00,49.18
731.00,78.56
730.00,75.38
729.00,42.61
728.00,56.67
727.00,77.83
726.00,123.24
725.00,151.22
724.00,62.70
723.00,113.13
722.00,137.21
721.00,221.79
720.00,237.90
719.00,190.10
718.00,133.83
717.00,112.42
716.00,20.97
715.00,61.84
714.00,169.96
713.00,178.84
712.00,118.69
711.00,156.35
710.00,113.01
709.00,117.28
708.00,143.42
707.00,114.14
706.00,129.57
705.00,58.19
704.00,34.10
703.00,53.10
702.00,140.73
701.00,103.92
700.00,42.54
699.00,130.34
698.00,167.84
697.00,39.39
696.00,26.03
695.00,44.83
694.00,119.65
693.00,111.40
692.00,95.40
691.00,86.72
690.00,89.07
689.00,50.47
688.00,31.18
687.00,35.84
686.00,73.12
685.00,109.19
684.00,127.42
683.00,156.97
682.00,152.01
681.00,191.85
680.00,121.55
679.00,129.35
678.00,122.12
677.00,152.23
676.00,62.58
675.00,221.10
674.00,481.35
673.00,133.86
672.00,25.14
671.00,55.25
670.00,223.81
669.00,101.08
668.00,58.76
667.00,240.95
666.00,139.71
665.00,241.44
664.00,42.38
663.00,119.50
662.00,279.48
661.00,173.87
660.00,18.13
659.00,102.61
658.00,842.86
657.00,225.20
656.00,133.55
655.00,239.84
654.00,119.18
653.00,169.22
652.00,51.20
651.00,91.65
650.00,156.87
649.00,76.94
648.00,16.34
647.00,50.66
646.00,94.22
645.00,62.11
644.00,26.14
643.00,118.20
642.00,85.89
641.00,87.49
640.00,133.67
639.00,82.26
638.00,77.44
637.00,101.02
636.00,120.62
635.00,148.85
634.00,157.69
633.00,188.79
632.00,51.65
631.00,68.59
630.00,92.15
629.00,80.69
628.00,46.07
627.00,45.91
626.00,60.22
625.00,49.25
624.00,58.04
623.00,124.30
622.00,208.53
621.00,466.10
620.00,81.13
619.00,117.27
618.00,125.87
617.00,99.19
616.00,53.12
615.00,90.91
614.00,104.56
613.00,113.56
612.00,31.78
611.00,81.55
610.00,319.62
609.00,84.56
608.00,34.90
607.00,113.63
606.00,94.33
605.00,112.23
604.00,123.43
603.00,95.98
602.00,93.82
601.00,147.94
600.00,77.09
599.00,73.50
598.00,97.88
597.00,70.25
596.00,52.15
595.00,120.85
594.00,169.47
593.00,205.75
592.00,96.09
591.00,472.84
590.00,219.29
589.00,121.36
588.00,55.73
587.00,82.74
586.00,77.54
585.00,81.48
584.00,26.40
583.00,170.53
582.00,189.37
581.00,320.90
580.00,139.84
579.00,432.42
578.00,186.55
577.00,158.44
576.00,129.71
575.00,551.65
574.00,211.63
573.00,223.30
572.00,151.14
571.00,36.76
570.00,-10.55
569.00,86.28
568.00,1099.41
567.00,78.29
566.00,37.70
565.00,75.23
564.00,71.51
563.00,98.49
562.00,212.42
561.00,871.90
560.00,156.25
559.00,465.99
558.00,248.69
557.00,42.26
556.00,33.23
555.00,82.46
554.00,137.69
553.00,59.30
552.00,22.17
551.00,42.73
550.00,111.02
549.00,77.54
548.00,9.02
547.00,89.96
546.00,133.12
545.00,176.86
544.00,121.07
543.00,93.54
542.00,93.58
541.00,98.79
540.00,66.98
539.00,64.75
538.00,95.76
537.00,163.62
536.00,70.74
535.00,177.42
534.00,373.08
533.00,304.62
532.00,115.38
531.00,160.83
530.00,102.00
529.00,88.58
528.00,191.59
527.00,177.44
526.00,175.02
525.00,235.64
524.00,111.63
523.00,153.54
522.00,131.09
521.00,115.00
520.00,102.32
519.00,102.16
518.00,91.98
517.00,91.04
516.00,26.22
515.00,7.62
514.00,49.38
513.00,39.69
512.00,39.72
511.00,83.94
510.00,101.07
509.00,172.02
508.00,56.85
507.00,173.36
506.00,128.63
505.00,115.15
504.00,58.05
503.00,169.06
502.00,337.72
501.00,165.06
500.00,61.19
499.00,84.45
498.00,93.32
497.00,72.98
496.00,42.26
495.00,127.54
494.00,315.36
493.00,207.20
492.00,43.94
491.00,232.99
490.00,237.19
489.00,241.17
488.00,91.39
487.00,251.51
486.00,284.97
485.00,148.22
484.00,11.24
483.00,77.52
482.00,861.87
481.00,155.49
480.00,34.86
479.00,104.05
478.00,146.60
477.00,187.39
476.00,33.88
475.00,94.69
474.00,75.60
473.00,94.47
472.00,213.84
471.00,136.74
470.00,92.98
469.00,116.04
468.00,279.63
467.00,132.85
466.00,100.71
465.00,128.73
464.00,132.04
463.00,121.87
462.00,128.17
461.00,288.64
460.00,307.64
459.00,198.69
458.00,107.52
457.00,111.87
456.00,99.54
455.00,67.56
454.00,69.87
453.00,68.37
452.00,56.36
451.00,155.48
450.00,255.20
