Created as New Dataset,Sample 002 By Administrator Date Tuesday, October 14 2025
cm-1,%T
4000.00,100.13
3999.00,100.12
3998.00,100.12
3997.00,100.12
3996.00,100.12
3995.00,100.12
3994.00,100.12
3993.00,100.11
3992.00,100.11
3991.00,100.12
3990.00,100.12
3989.00,100.12
3988.00,100.13
3987.00,100.13
3986.00,100.14
3985.00,100.14
3984.00,100.14
3983.00,100.14
3982.00,100.13
3981.00,100.11
3980.00,100.10
3979.00,100.09
3978.00,100.09
3977.00,100.10
3976.00,100.11
3975.00,100.12
3974.00,100.13
3973.00,100.13
3972.00,100.13
3971.00,100.12
3970.00,100.11
3969.00,100.10
3968.00,100.09
3967.00,100.09
3966.00,100.09
3965.00,100.09
3964.00,100.10
3963.00,100.11
3962.00,100.11
3961.00,100.11
3960.00,100.12
3959.00,100.13
3958.00,100.13
3957.00,100.13
3956.00,100.13
3955.00,100.13
3954.00,100.14
3953.00,100.14
3952.00,100.14
3951.00,100.14
3950.00,100.12
3949.00,100.10
3948.00,100.08
3947.00,100.07
3946.00,100.10
3945.00,100.14
3944.00,100.17
3943.00,100.15
3942.00,100.12
3941.00,100.10
3940.00,100.11
3939.00,100.11
3938.00,100.10
3937.00,100.08
3936.00,100.07
3935.00,100.08
3934.00,100.09
3933.00,100.09
3932.00,100.10
3931.00,100.13
3930.00,100.14
3929.00,100.14
3928.00,100.15
3927.00,100.17
3926.00,100.20
3925.00,100.17
3924.00,100.11
3923.00,100.08
3922.00,100.08
3921.00,100.06
3920.00,100.03
3919.00,100.02
3918.00,100.05
3917.00,100.07
3916.00,100.07
3915.00,100.08
3914.00,100.11
3913.00,100.12
3912.00,100.11
3911.00,100.10
3910.00,100.11
3909.00,100.11
3908.00,100.13
3907.00,100.15
3906.00,100.16
3905.00,100.09
3904.00,99.95
3903.00,99.85
3902.00,99.86
3901.00,99.97
3900.00,100.05
3899.00,100.07
3898.00,100.06
3897.00,100.06
3896.00,100.06
3895.00,100.06
3894.00,100.07
3893.00,100.12
3892.00,100.15
3891.00,100.10
3890.00,99.99
3889.00,99.94
3888.00,99.95
3887.00,99.97
3886.00,99.96
3885.00,99.95
3884.00,100.01
3883.00,100.14
3882.00,100.24
3881.00,100.23
3880.00,100.14
3879.00,100.05
3878.00,100.02
3877.00,100.07
3876.00,100.13
3875.00,100.12
3874.00,100.03
3873.00,99.95
3872.00,99.97
3871.00,100.00
3870.00,99.94
3869.00,99.85
3868.00,99.88
3867.00,100.01
3866.00,100.04
3865.00,99.98
3864.00,99.96
3863.00,100.02
3862.00,100.03
3861.00,99.99
3860.00,99.97
3859.00,100.01
3858.00,100.09
3857.00,100.15
3856.00,100.15
3855.00,100.10
3854.00,100.02
3853.00,99.93
3852.00,99.86
3851.00,99.87
3850.00,99.90
3849.00,99.88
3848.00,99.88
3847.00,99.93
3846.00,99.99
3845.00,100.03
3844.00,100.04
3843.00,100.02
3842.00,99.98
3841.00,99.99
3840.00,100.02
3839.00,100.03
3838.00,100.03
3837.00,100.04
3836.00,100.04
3835.00,100.03
3834.00,100.02
3833.00,100.03
3832.00,100.02
3831.00,99.99
3830.00,99.97
3829.00,100.02
3828.00,100.08
3827.00,100.09
3826.00,99.99
3825.00,99.90
3824.00,99.89
3823.00,99.93
3822.00,99.95
3821.00,99.92
3820.00,99.86
3819.00,99.89
3818.00,99.97
3817.00,99.98
3816.00,99.93
3815.00,99.90
3814.00,99.96
3813.00,100.04
3812.00,100.02
3811.00,99.93
3810.00,99.87
3809.00,99.90
3808.00,99.94
3807.00,99.90
3806.00,99.81
3805.00,99.81
3804.00,99.90
3803.00,99.97
3802.00,99.97
3801.00,99.96
3800.00,99.98
3799.00,100.05
3798.00,100.09
3797.00,100.06
3796.00,100.03
3795.00,100.03
3794.00,100.07
3793.00,100.10
3792.00,100.09
3791.00,100.09
3790.00,100.10
3789.00,100.12
3788.00,100.12
3787.00,100.12
3786.00,100.13
3785.00,100.13
3784.00,100.11
3783.00,100.10
3782.00,100.12
3781.00,100.16
3780.00,100.17
3779.00,100.13
3778.00,100.09
3777.00,100.10
3776.00,100.11
3775.00,100.07
3774.00,100.01
3773.00,100.01
3772.00,100.05
3771.00,100.06
3770.00,100.01
3769.00,99.99
3768.00,100.03
3767.00,100.06
3766.00,100.05
3765.00,100.01
3764.00,99.97
3763.00,99.99
3762.00,100.04
3761.00,100.05
3760.00,100.05
3759.00,100.05
3758.00,100.03
3757.00,99.97
3756.00,99.92
3755.00,99.89
3754.00,99.80
3753.00,99.64
3752.00,99.50
3751.00,99.48
3750.00,99.50
3749.00,99.49
3748.00,99.55
3747.00,99.76
3746.00,99.96
3745.00,100.00
3744.00,99.91
3743.00,99.81
3742.00,99.78
3741.00,99.74
3740.00,99.63
3739.00,99.55
3738.00,99.58
3737.00,99.66
3736.00,99.70
3735.00,99.74
3734.00,99.81
3733.00,99.85
3732.00,99.85
3731.00,99.84
3730.00,99.85
3729.00,99.88
3728.00,99.90
3727.00,99.90
3726.00,99.92
3725.00,99.98
3724.00,100.05
3723.00,100.08
3722.00,100.07
3721.00,100.05
3720.00,100.06
3719.00,100.07
3718.00,100.05
3717.00,99.98
3716.00,99.92
3715.00,99.87
3714.00,99.81
3713.00,99.75
3712.00,99.79
3711.00,99.88
3710.00,99.95
3709.00,99.97
3708.00,99.98
3707.00,99.98
3706.00,99.98
3705.00,100.00
3704.00,100.05
3703.00,100.11
3702.00,100.14
3701.00,100.12
3700.00,100.09
3699.00,100.09
3698.00,100.08
3697.00,100.04
3696.00,100.02
3695.00,100.04
3694.00,100.06
3693.00,100.04
3692.00,100.01
3691.00,99.98
3690.00,99.95
3689.00,99.91
3688.00,99.87
3687.00,99.87
3686.00,99.92
3685.00,99.95
3684.00,99.95
3683.00,99.94
3682.00,99.98
3681.00,100.02
3680.00,99.96
3679.00,99.84
3678.00,99.74
3677.00,99.71
3676.00,99.71
3675.00,99.71
3674.00,99.73
3673.00,99.79
3672.00,99.83
3671.00,99.81
3670.00,99.82
3669.00,99.88
3668.00,99.94
3667.00,99.98
3666.00,99.99
3665.00,99.99
3664.00,100.00
3663.00,100.03
3662.00,100.07
3661.00,100.05
3660.00,99.99
3659.00,99.94
3658.00,99.94
3657.00,99.94
3656.00,99.91
3655.00,99.88
3654.00,99.89
3653.00,99.89
3652.00,99.79
3651.00,99.65
3650.00,99.64
3649.00,99.77
3648.00,99.88
3647.00,99.93
3646.00,99.96
3645.00,99.99
3644.00,100.01
3643.00,100.02
3642.00,100.04
3641.00,100.07
3640.00,100.09
3639.00,100.09
3638.00,100.07
3637.00,100.05
3636.00,100.04
3635.00,100.03
3634.00,99.98
3633.00,99.90
3632.00,99.83
3631.00,99.77
3630.00,99.72
3629.00,99.71
3628.00,99.74
3627.00,99.81
3626.00,99.89
3625.00,99.92
3624.00,99.90
3623.00,99.92
3622.00,99.97
3621.00,100.03
3620.00,100.06
3619.00,100.05
3618.00,100.02
3617.00,99.98
3616.00,99.96
3615.00,99.96
3614.00,99.93
3613.00,99.87
3612.00,99.82
3611.00,99.81
3610.00,99.82
3609.00,99.84
3608.00,99.89
3607.00,99.95
3606.00,100.01
3605.00,100.03
3604.00,100.04
3603.00,100.05
3602.00,100.07
3601.00,100.06
3600.00,100.04
3599.00,100.04
3598.00,100.05
3597.00,100.04
3596.00,100.04
3595.00,100.06
3594.00,100.04
3593.00,100.00
3592.00,99.95
3591.00,99.92
3590.00,99.92
3589.00,99.93
3588.00,99.97
3587.00,100.01
3586.00,100.02
3585.00,100.02
3584.00,100.03
3583.00,100.05
3582.00,100.06
3581.00,100.08
3580.00,100.09
3579.00,100.10
3578.00,100.10
3577.00,100.09
3576.00,100.08
3575.00,100.08
3574.00,100.07
3573.00,100.05
3572.00,100.02
3571.00,99.99
3570.00,99.96
3569.00,99.93
3568.00,99.93
3567.00,99.95
3566.00,99.99
3565.00,100.02
3564.00,100.04
3563.00,100.06
3562.00,100.07
3561.00,100.07
3560.00,100.07
3559.00,100.08
3558.00,100.07
3557.00,100.06
3556.00,100.06
3555.00,100.07
3554.00,100.08
3553.00,100.08
3552.00,100.06
3551.00,100.04
3550.00,100.02
3549.00,99.99
3548.00,99.98
3547.00,99.98
3546.00,100.01
3545.00,100.03
3544.00,100.05
3543.00,100.06
3542.00,100.07
3541.00,100.07
3540.00,100.07
3539.00,100.09
3538.00,100.10
3537.00,100.10
3536.00,100.09
3535.00,100.08
3534.00,100.08
3533.00,100.08
3532.00,100.08
3531.00,100.09
3530.00,100.10
3529.00,100.09
3528.00,100.06
3527.00,100.03
3526.00,100.03
3525.00,100.03
3524.00,100.04
3523.00,100.06
3522.00,100.07
3521.00,100.07
3520.00,100.08
3519.00,100.08
3518.00,100.08
3517.00,100.07
3516.00,100.06
3515.00,100.06
3514.00,100.06
3513.00,100.06
3512.00,100.06
3511.00,100.07
3510.00,100.08
3509.00,100.07
3508.00,100.06
3507.00,100.06
3506.00,100.06
3505.00,100.05
3504.00,100.04
3503.00,100.03
3502.00,100.03
3501.00,100.02
3500.00,100.03
3499.00,100.05
3498.00,100.07
3497.00,100.08
3496.00,100.08
3495.00,100.09
3494.00,100.08
3493.00,100.07
3492.00,100.06
3491.00,100.06
3490.00,100.07
3489.00,100.07
3488.00,100.06
3487.00,100.06
3486.00,100.06
3485.00,100.07
3484.00,100.07
3483.00,100.07
3482.00,100.07
3481.00,100.05
3480.00,100.04
3479.00,100.04
3478.00,100.05
3477.00,100.06
3476.00,100.06
3475.00,100.07
3474.00,100.07
3473.00,100.06
3472.00,100.05
3471.00,100.05
3470.00,100.05
3469.00,100.04
3468.00,100.05
3467.00,100.05
3466.00,100.06
3465.00,100.07
3464.00,100.07
3463.00,100.08
3462.00,100.08
3461.00,100.07
3460.00,100.07
3459.00,100.08
3458.00,100.08
3457.00,100.08
3456.00,100.07
3455.00,100.07
3454.00,100.07
3453.00,100.06
3452.00,100.06
3451.00,100.06
3450.00,100.07
3449.00,100.07
3448.00,100.07
3447.00,100.07
3446.00,100.06
3445.00,100.06
3444.00,100.06
3443.00,100.07
3442.00,100.07
3441.00,100.07
3440.00,100.06
3439.00,100.06
3438.00,100.06
3437.00,100.05
3436.00,100.05
3435.00,100.05
3434.00,100.06
3433.00,100.06
3432.00,100.06
3431.00,100.06
3430.00,100.07
3429.00,100.07
3428.00,100.08
3427.00,100.08
3426.00,100.08
3425.00,100.08
3424.00,100.07
3423.00,100.07
3422.00,100.07
3421.00,100.07
3420.00,100.07
3419.00,100.06
3418.00,100.06
3417.00,100.06
3416.00,100.06
3415.00,100.07
3414.00,100.07
3413.00,100.07
3412.00,100.06
3411.00,100.06
3410.00,100.07
3409.00,100.07
3408.00,100.07
3407.00,100.06
3406.00,100.05
3405.00,100.05
3404.00,100.04
3403.00,100.05
3402.00,100.05
3401.00,100.05
3400.00,100.06
3399.00,100.07
3398.00,100.07
3397.00,100.07
3396.00,100.07
3395.00,100.07
3394.00,100.07
3393.00,100.06
3392.00,100.05
3391.00,100.05
3390.00,100.05
3389.00,100.06
3388.00,100.07
3387.00,100.08
3386.00,100.09
3385.00,100.09
3384.00,100.08
3383.00,100.08
3382.00,100.08
3381.00,100.08
3380.00,100.07
3379.00,100.07
3378.00,100.07
3377.00,100.07
3376.00,100.06
3375.00,100.06
3374.00,100.06
3373.00,100.05
3372.00,100.05
3371.00,100.05
3370.00,100.05
3369.00,100.05
3368.00,100.05
3367.00,100.05
3366.00,100.06
3365.00,100.06
3364.00,100.07
3363.00,100.07
3362.00,100.06
3361.00,100.06
3360.00,100.05
3359.00,100.06
3358.00,100.07
3357.00,100.07
3356.00,100.07
3355.00,100.07
3354.00,100.08
3353.00,100.08
3352.00,100.07
3351.00,100.07
3350.00,100.07
3349.00,100.06
3348.00,100.07
3347.00,100.08
3346.00,100.08
3345.00,100.08
3344.00,100.08
3343.00,100.08
3342.00,100.08
3341.00,100.08
3340.00,100.07
3339.00,100.06
3338.00,100.06
3337.00,100.07
3336.00,100.07
3335.00,100.08
3334.00,100.08
3333.00,100.08
3332.00,100.08
3331.00,100.08
3330.00,100.08
3329.00,100.08
3328.00,100.08
3327.00,100.08
3326.00,100.08
3325.00,100.09
3324.00,100.09
3323.00,100.09
3322.00,100.09
3321.00,100.08
3320.00,100.08
3319.00,100.08
3318.00,100.08
3317.00,100.07
3316.00,100.06
3315.00,100.06
3314.00,100.07
3313.00,100.07
3312.00,100.08
3311.00,100.08
3310.00,100.08
3309.00,100.07
3308.00,100.06
3307.00,100.06
3306.00,100.06
3305.00,100.07
3304.00,100.08
3303.00,100.09
3302.00,100.09
3301.00,100.08
3300.00,100.08
3299.00,100.08
3298.00,100.08
3297.00,100.08
3296.00,100.08
3295.00,100.07
3294.00,100.07
3293.00,100.07
3292.00,100.07
3291.00,100.07
3290.00,100.08
3289.00,100.09
3288.00,100.09
3287.00,100.10
3286.00,100.10
3285.00,100.10
3284.00,100.09
3283.00,100.09
3282.00,100.08
3281.00,100.08
3280.00,100.08
3279.00,100.07
3278.00,100.07
3277.00,100.06
3276.00,100.06
3275.00,100.06
3274.00,100.07
3273.00,100.07
3272.00,100.07
3271.00,100.07
3270.00,100.07
3269.00,100.08
3268.00,100.08
3267.00,100.09
3266.00,100.10
3265.00,100.11
3264.00,100.11
3263.00,100.11
3262.00,100.10
3261.00,100.09
3260.00,100.09
3259.00,100.10
3258.00,100.10
3257.00,100.09
3256.00,100.09
3255.00,100.08
3254.00,100.08
3253.00,100.08
3252.00,100.08
3251.00,100.08
3250.00,100.07
3249.00,100.07
3248.00,100.06
3247.00,100.06
3246.00,100.07
3245.00,100.06
3244.00,100.06
3243.00,100.07
3242.00,100.07
3241.00,100.08
3240.00,100.08
3239.00,100.09
3238.00,100.10
3237.00,100.10
3236.00,100.09
3235.00,100.08
3234.00,100.08
3233.00,100.07
3232.00,100.08
3231.00,100.09
3230.00,100.10
3229.00,100.10
3228.00,100.10
3227.00,100.11
3226.00,100.11
3225.00,100.10
3224.00,100.10
3223.00,100.10
3222.00,100.09
3221.00,100.08
3220.00,100.07
3219.00,100.07
3218.00,100.07
3217.00,100.07
3216.00,100.07
3215.00,100.08
3214.00,100.08
3213.00,100.08
3212.00,100.09
3211.00,100.09
3210.00,100.09
3209.00,100.08
3208.00,100.08
3207.00,100.08
3206.00,100.08
3205.00,100.09
3204.00,100.09
3203.00,100.10
3202.00,100.11
3201.00,100.11
3200.00,100.11
3199.00,100.10
3198.00,100.10
3197.00,100.09
3196.00,100.09
3195.00,100.09
3194.00,100.09
3193.00,100.08
3192.00,100.09
3191.00,100.09
3190.00,100.09
3189.00,100.09
3188.00,100.09
3187.00,100.09
3186.00,100.09
3185.00,100.09
3184.00,100.10
3183.00,100.10
3182.00,100.10
3181.00,100.10
3180.00,100.10
3179.00,100.10
3178.00,100.10
3177.00,100.10
3176.00,100.10
3175.00,100.10
3174.00,100.10
3173.00,100.10
3172.00,100.10
3171.00,100.11
3170.00,100.11
3169.00,100.11
3168.00,100.11
3167.00,100.11
3166.00,100.11
3165.00,100.10
3164.00,100.10
3163.00,100.10
3162.00,100.10
3161.00,100.10
3160.00,100.10
3159.00,100.10
3158.00,100.10
3157.00,100.10
3156.00,100.09
3155.00,100.09
3154.00,100.09
3153.00,100.10
3152.00,100.11
3151.00,100.11
3150.00,100.11
3149.00,100.10
3148.00,100.10
3147.00,100.10
3146.00,100.10
3145.00,100.10
3144.00,100.10
3143.00,100.10
3142.00,100.10
3141.00,100.09
3140.00,100.09
3139.00,100.10
3138.00,100.10
3137.00,100.09
3136.00,100.09
3135.00,100.09
3134.00,100.09
3133.00,100.08
3132.00,100.08
3131.00,100.09
3130.00,100.09
3129.00,100.09
3128.00,100.10
3127.00,100.10
3126.00,100.11
3125.00,100.10
3124.00,100.10
3123.00,100.10
3122.00,100.09
3121.00,100.09
3120.00,100.09
3119.00,100.09
3118.00,100.09
3117.00,100.08
3116.00,100.08
3115.00,100.09
3114.00,100.09
3113.00,100.09
3112.00,100.10
3111.00,100.10
3110.00,100.09
3109.00,100.09
3108.00,100.10
3107.00,100.10
3106.00,100.10
3105.00,100.10
3104.00,100.10
3103.00,100.10
3102.00,100.10
3101.00,100.10
3100.00,100.10
3099.00,100.10
3098.00,100.10
3097.00,100.09
3096.00,100.09
3095.00,100.09
3094.00,100.09
3093.00,100.10
3092.00,100.10
3091.00,100.10
3090.00,100.10
3089.00,100.10
3088.00,100.10
3087.00,100.10
3086.00,100.10
3085.00,100.10
3084.00,100.11
3083.00,100.11
3082.00,100.10
3081.00,100.09
3080.00,100.09
3079.00,100.09
3078.00,100.08
3077.00,100.08
3076.00,100.09
3075.00,100.09
3074.00,100.10
3073.00,100.10
3072.00,100.10
3071.00,100.10
3070.00,100.09
3069.00,100.08
3068.00,100.08
3067.00,100.08
3066.00,100.09
3065.00,100.09
3064.00,100.10
3063.00,100.10
3062.00,100.10
3061.00,100.11
3060.00,100.11
3059.00,100.11
3058.00,100.10
3057.00,100.10
3056.00,100.10
3055.00,100.10
3054.00,100.10
3053.00,100.10
3052.00,100.10
3051.00,100.10
3050.00,100.10
3049.00,100.10
3048.00,100.10
3047.00,100.11
3046.00,100.12
3045.00,100.12
3044.00,100.12
3043.00,100.12
3042.00,100.12
3041.00,100.11
3040.00,100.10
3039.00,100.10
3038.00,100.10
3037.00,100.10
3036.00,100.10
3035.00,100.10
3034.00,100.11
3033.00,100.11
3032.00,100.12
3031.00,100.12
3030.00,100.12
3029.00,100.11
3028.00,100.11
3027.00,100.11
3026.00,100.11
3025.00,100.11
3024.00,100.11
3023.00,100.11
3022.00,100.11
3021.00,100.10
3020.00,100.09
3019.00,100.08
3018.00,100.07
3017.00,100.07
3016.00,100.07
3015.00,100.08
3014.00,100.09
3013.00,100.09
3012.00,100.09
3011.00,100.09
3010.00,100.09
3009.00,100.10
3008.00,100.11
3007.00,100.12
3006.00,100.13
3005.00,100.12
3004.00,100.12
3003.00,100.11
3002.00,100.11
3001.00,100.11
3000.00,100.12
2999.00,100.12
2998.00,100.12
2997.00,100.11
2996.00,100.11
2995.00,100.11
2994.00,100.11
2993.00,100.12
2992.00,100.12
2991.00,100.12
2990.00,100.12
2989.00,100.12
2988.00,100.12
2987.00,100.12
2986.00,100.11
2985.00,100.11
2984.00,100.10
2983.00,100.11
2982.00,100.11
2981.00,100.11
2980.00,100.11
2979.00,100.10
2978.00,100.10
2977.00,100.10
2976.00,100.10
2975.00,100.10
2974.00,100.10
2973.00,100.10
2972.00,100.10
2971.00,100.11
2970.00,100.11
2969.00,100.11
2968.00,100.12
2967.00,100.12
2966.00,100.12
2965.00,100.12
2964.00,100.12
2963.00,100.12
2962.00,100.12
2961.00,100.11
2960.00,100.11
2959.00,100.11
2958.00,100.11
2957.00,100.11
2956.00,100.11
2955.00,100.11
2954.00,100.11
2953.00,100.10
2952.00,100.10
2951.00,100.11
2950.00,100.11
2949.00,100.10
2948.00,100.10
2947.00,100.10
2946.00,100.10
2945.00,100.10
2944.00,100.10
2943.00,100.09
2942.00,100.09
2941.00,100.09
2940.00,100.09
2939.00,100.10
2938.00,100.11
2937.00,100.11
2936.00,100.11
2935.00,100.12
2934.00,100.12
2933.00,100.12
2932.00,100.12
2931.00,100.12
2930.00,100.12
2929.00,100.12
2928.00,100.12
2927.00,100.12
2926.00,100.11
2925.00,100.10
2924.00,100.10
2923.00,100.10
2922.00,100.10
2921.00,100.10
2920.00,100.11
2919.00,100.11
2918.00,100.11
2917.00,100.11
2916.00,100.11
2915.00,100.11
2914.00,100.12
2913.00,100.12
2912.00,100.12
2911.00,100.12
2910.00,100.12
2909.00,100.11
2908.00,100.11
2907.00,100.11
2906.00,100.11
2905.00,100.11
2904.00,100.11
2903.00,100.12
2902.00,100.12
2901.00,100.12
2900.00,100.12
2899.00,100.12
2898.00,100.11
2897.00,100.11
2896.00,100.11
2895.00,100.12
2894.00,100.12
2893.00,100.11
2892.00,100.11
2891.00,100.11
2890.00,100.11
2889.00,100.11
2888.00,100.11
2887.00,100.11
2886.00,100.11
2885.00,100.11
2884.00,100.11
2883.00,100.11
2882.00,100.11
2881.00,100.11
2880.00,100.11
2879.00,100.12
2878.00,100.12
2877.00,100.12
2876.00,100.12
2875.00,100.12
2874.00,100.12
2873.00,100.12
2872.00,100.12
2871.00,100.12
2870.00,100.12
2869.00,100.12
2868.00,100.13
2867.00,100.13
2866.00,100.12
2865.00,100.11
2864.00,100.11
2863.00,100.12
2862.00,100.12
2861.00,100.12
2860.00,100.12
2859.00,100.12
2858.00,100.12
2857.00,100.12
2856.00,100.12
2855.00,100.12
2854.00,100.12
2853.00,100.12
2852.00,100.12
2851.00,100.12
2850.00,100.11
2849.00,100.11
2848.00,100.10
2847.00,100.10
2846.00,100.10
2845.00,100.10
2844.00,100.11
2843.00,100.12
2842.00,100.13
2841.00,100.13
2840.00,100.12
2839.00,100.12
2838.00,100.12
2837.00,100.12
2836.00,100.12
2835.00,100.12
2834.00,100.12
2833.00,100.12
2832.00,100.12
2831.00,100.13
2830.00,100.12
2829.00,100.12
2828.00,100.11
2827.00,100.11
2826.00,100.11
2825.00,100.11
2824.00,100.12
2823.00,100.12
2822.00,100.12
2821.00,100.11
2820.00,100.11
2819.00,100.12
2818.00,100.12
2817.00,100.12
2816.00,100.12
2815.00,100.12
2814.00,100.12
2813.00,100.11
2812.00,100.11
2811.00,100.11
2810.00,100.12
2809.00,100.12
2808.00,100.12
2807.00,100.11
2806.00,100.11
2805.00,100.11
2804.00,100.11
2803.00,100.12
2802.00,100.12
2801.00,100.12
2800.00,100.13
2799.00,100.13
2798.00,100.13
2797.00,100.13
2796.00,100.13
2795.00,100.12
2794.00,100.12
2793.00,100.12
2792.00,100.11
2791.00,100.11
2790.00,100.11
2789.00,100.11
2788.00,100.12
2787.00,100.12
2786.00,100.12
2785.00,100.12
2784.00,100.12
2783.00,100.12
2782.00,100.12
2781.00,100.12
2780.00,100.12
2779.00,100.12
2778.00,100.13
2777.00,100.12
2776.00,100.13
2775.00,100.13
2774.00,100.13
2773.00,100.13
2772.00,100.13
2771.00,100.12
2770.00,100.12
2769.00,100.12
2768.00,100.12
2767.00,100.11
2766.00,100.11
2765.00,100.12
2764.00,100.12
2763.00,100.12
2762.00,100.12
2761.00,100.12
2760.00,100.12
2759.00,100.12
2758.00,100.12
2757.00,100.12
2756.00,100.12
2755.00,100.12
2754.00,100.12
2753.00,100.12
2752.00,100.12
2751.00,100.12
2750.00,100.11
2749.00,100.11
2748.00,100.12
2747.00,100.13
2746.00,100.13
2745.00,100.13
2744.00,100.13
2743.00,100.13
2742.00,100.13
2741.00,100.13
2740.00,100.13
2739.00,100.13
2738.00,100.13
2737.00,100.12
2736.00,100.12
2735.00,100.12
2734.00,100.12
2733.00,100.12
2732.00,100.12
2731.00,100.12
2730.00,100.11
2729.00,100.11
2728.00,100.12
2727.00,100.12
2726.00,100.12
2725.00,100.12
2724.00,100.12
2723.00,100.12
2722.00,100.12
2721.00,100.12
2720.00,100.13
2719.00,100.13
2718.00,100.13
2717.00,100.14
2716.00,100.14
2715.00,100.14
2714.00,100.13
2713.00,100.12
2712.00,100.12
2711.00,100.12
2710.00,100.12
2709.00,100.12
2708.00,100.12
2707.00,100.12
2706.00,100.12
2705.00,100.12
2704.00,100.13
2703.00,100.13
2702.00,100.13
2701.00,100.13
2700.00,100.13
2699.00,100.13
2698.00,100.13
2697.00,100.13
2696.00,100.13
2695.00,100.13
2694.00,100.13
2693.00,100.12
2692.00,100.12
2691.00,100.13
2690.00,100.13
2689.00,100.13
2688.00,100.12
2687.00,100.12
2686.00,100.12
2685.00,100.12
2684.00,100.12
2683.00,100.13
2682.00,100.13
2681.00,100.13
2680.00,100.12
2679.00,100.12
2678.00,100.11
2677.00,100.11
2676.00,100.12
2675.00,100.12
2674.00,100.12
2673.00,100.13
2672.00,100.13
2671.00,100.13
2670.00,100.13
2669.00,100.13
2668.00,100.13
2667.00,100.12
2666.00,100.12
2665.00,100.12
2664.00,100.12
2663.00,100.13
2662.00,100.13
2661.00,100.12
2660.00,100.12
2659.00,100.12
2658.00,100.12
2657.00,100.12
2656.00,100.12
2655.00,100.12
2654.00,100.12
2653.00,100.12
2652.00,100.12
2651.00,100.12
2650.00,100.12
2649.00,100.12
2648.00,100.12
2647.00,100.12
2646.00,100.12
2645.00,100.12
2644.00,100.12
2643.00,100.11
2642.00,100.11
2641.00,100.11
2640.00,100.12
2639.00,100.13
2638.00,100.13
2637.00,100.13
2636.00,100.13
2635.00,100.13
2634.00,100.13
2633.00,100.13
2632.00,100.13
2631.00,100.13
2630.00,100.13
2629.00,100.12
2628.00,100.11
2627.00,100.11
2626.00,100.11
2625.00,100.12
2624.00,100.13
2623.00,100.13
2622.00,100.12
2621.00,100.12
2620.00,100.12
2619.00,100.12
2618.00,100.11
2617.00,100.11
2616.00,100.12
2615.00,100.12
2614.00,100.12
2613.00,100.12
2612.00,100.12
2611.00,100.13
2610.00,100.12
2609.00,100.12
2608.00,100.12
2607.00,100.12
2606.00,100.13
2605.00,100.13
2604.00,100.13
2603.00,100.13
2602.00,100.12
2601.00,100.12
2600.00,100.12
2599.00,100.12
2598.00,100.12
2597.00,100.12
2596.00,100.12
2595.00,100.13
2594.00,100.12
2593.00,100.12
2592.00,100.12
2591.00,100.12
2590.00,100.12
2589.00,100.12
2588.00,100.12
2587.00,100.12
2586.00,100.12
2585.00,100.12
2584.00,100.12
2583.00,100.13
2582.00,100.13
2581.00,100.13
2580.00,100.13
2579.00,100.12
2578.00,100.12
2577.00,100.12
2576.00,100.12
2575.00,100.12
2574.00,100.13
2573.00,100.13
2572.00,100.13
2571.00,100.14
2570.00,100.13
2569.00,100.13
2568.00,100.12
2567.00,100.12
2566.00,100.12
2565.00,100.12
2564.00,100.12
2563.00,100.12
2562.00,100.12
2561.00,100.12
2560.00,100.12
2559.00,100.12
2558.00,100.12
2557.00,100.12
2556.00,100.12
2555.00,100.12
2554.00,100.12
2553.00,100.11
2552.00,100.12
2551.00,100.12
2550.00,100.12
2549.00,100.11
2548.00,100.12
2547.00,100.12
2546.00,100.12
2545.00,100.13
2544.00,100.13
2543.00,100.13
2542.00,100.12
2541.00,100.12
2540.00,100.12
2539.00,100.12
2538.00,100.12
2537.00,100.12
2536.00,100.12
2535.00,100.12
2534.00,100.12
2533.00,100.12
2532.00,100.13
2531.00,100.13
2530.00,100.13
2529.00,100.13
2528.00,100.13
2527.00,100.13
2526.00,100.13
2525.00,100.12
2524.00,100.12
2523.00,100.13
2522.00,100.12
2521.00,100.12
2520.00,100.13
2519.00,100.13
2518.00,100.13
2517.00,100.13
2516.00,100.13
2515.00,100.12
2514.00,100.12
2513.00,100.12
2512.00,100.12
2511.00,100.13
2510.00,100.13
2509.00,100.14
2508.00,100.14
2507.00,100.14
2506.00,100.13
2505.00,100.13
2504.00,100.13
2503.00,100.12
2502.00,100.12
2501.00,100.12
2500.00,100.13
2499.00,100.13
2498.00,100.14
2497.00,100.13
2496.00,100.13
2495.00,100.13
2494.00,100.13
2493.00,100.13
2492.00,100.13
2491.00,100.12
2490.00,100.12
2489.00,100.12
2488.00,100.12
2487.00,100.12
2486.00,100.12
2485.00,100.12
2484.00,100.13
2483.00,100.13
2482.00,100.13
2481.00,100.13
2480.00,100.14
2479.00,100.13
2478.00,100.13
2477.00,100.13
2476.00,100.13
2475.00,100.13
2474.00,100.13
2473.00,100.12
2472.00,100.12
2471.00,100.12
2470.00,100.12
2469.00,100.12
2468.00,100.13
2467.00,100.14
2466.00,100.14
2465.00,100.14
2464.00,100.14
2463.00,100.14
2462.00,100.13
2461.00,100.13
2460.00,100.13
2459.00,100.13
2458.00,100.13
2457.00,100.12
2456.00,100.12
2455.00,100.12
2454.00,100.12
2453.00,100.12
2452.00,100.12
2451.00,100.12
2450.00,100.12
2449.00,100.13
2448.00,100.13
2447.00,100.13
2446.00,100.13
2445.00,100.12
2444.00,100.12
2443.00,100.12
2442.00,100.12
2441.00,100.12
2440.00,100.13
2439.00,100.12
2438.00,100.12
2437.00,100.12
2436.00,100.13
2435.00,100.13
2434.00,100.13
2433.00,100.12
2432.00,100.13
2431.00,100.13
2430.00,100.13
2429.00,100.13
2428.00,100.14
2427.00,100.14
2426.00,100.14
2425.00,100.14
2424.00,100.14
2423.00,100.14
2422.00,100.13
2421.00,100.12
2420.00,100.12
2419.00,100.12
2418.00,100.12
2417.00,100.12
2416.00,100.12
2415.00,100.13
2414.00,100.13
2413.00,100.13
2412.00,100.13
2411.00,100.13
2410.00,100.13
2409.00,100.12
2408.00,100.12
2407.00,100.13
2406.00,100.12
2405.00,100.12
2404.00,100.13
2403.00,100.13
2402.00,100.13
2401.00,100.13
2400.00,100.13
2399.00,100.13
2398.00,100.12
2397.00,100.12
2396.00,100.12
2395.00,100.12
2394.00,100.12
2393.00,100.12
2392.00,100.12
2391.00,100.12
2390.00,100.12
2389.00,100.12
2388.00,100.12
2387.00,100.11
2386.00,100.10
2385.00,100.09
2384.00,100.09
2383.00,100.08
2382.00,100.08
2381.00,100.08
2380.00,100.08
2379.00,100.09
2378.00,100.10
2377.00,100.11
2376.00,100.12
2375.00,100.13
2374.00,100.12
2373.00,100.11
2372.00,100.10
2371.00,100.09
2370.00,100.09
2369.00,100.09
2368.00,100.10
2367.00,100.10
2366.00,100.11
2365.00,100.11
2364.00,100.13
2363.00,100.14
2362.00,100.12
2361.00,100.09
2360.00,100.07
2359.00,100.05
2358.00,100.04
2357.00,100.05
2356.00,100.07
2355.00,100.10
2354.00,100.13
2353.00,100.15
2352.00,100.14
2351.00,100.11
2350.00,100.08
2349.00,100.07
2348.00,100.09
2347.00,100.09
2346.00,100.09
2345.00,100.06
2344.00,100.04
2343.00,100.02
2342.00,100.01
2341.00,100.02
2340.00,100.03
2339.00,100.05
2338.00,100.06
2337.00,100.07
2336.00,100.09
2335.00,100.09
2334.00,100.08
2333.00,100.08
2332.00,100.07
2331.00,100.07
2330.00,100.06
2329.00,100.06
2328.00,100.05
2327.00,100.03
2326.00,100.02
2325.00,100.02
2324.00,100.02
2323.00,100.02
2322.00,100.02
2321.00,100.03
2320.00,100.04
2319.00,100.05
2318.00,100.05
2317.00,100.06
2316.00,100.07
2315.00,100.08
2314.00,100.09
2313.00,100.09
2312.00,100.08
2311.00,100.07
2310.00,100.07
2309.00,100.07
2308.00,100.07
2307.00,100.08
2306.00,100.08
2305.00,100.08
2304.00,100.08
2303.00,100.08
2302.00,100.07
2301.00,100.08
2300.00,100.08
2299.00,100.09
2298.00,100.09
2297.00,100.10
2296.00,100.11
2295.00,100.11
2294.00,100.11
2293.00,100.11
2292.00,100.11
2291.00,100.11
2290.00,100.11
2289.00,100.10
2288.00,100.10
2287.00,100.11
2286.00,100.11
2285.00,100.11
2284.00,100.12
2283.00,100.12
2282.00,100.12
2281.00,100.12
2280.00,100.13
2279.00,100.13
2278.00,100.12
2277.00,100.12
2276.00,100.12
2275.00,100.12
2274.00,100.12
2273.00,100.12
2272.00,100.12
2271.00,100.12
2270.00,100.12
2269.00,100.12
2268.00,100.12
2267.00,100.12
2266.00,100.11
2265.00,100.11
2264.00,100.12
2263.00,100.11
2262.00,100.11
2261.00,100.11
2260.00,100.12
2259.00,100.12
2258.00,100.12
2257.00,100.12
2256.00,100.12
2255.00,100.12
2254.00,100.12
2253.00,100.12
2252.00,100.13
2251.00,100.13
2250.00,100.13
2249.00,100.13
2248.00,100.13
2247.00,100.12
2246.00,100.12
2245.00,100.12
2244.00,100.12
2243.00,100.12
2242.00,100.11
2241.00,100.11
2240.00,100.11
2239.00,100.11
2238.00,100.11
2237.00,100.10
2236.00,100.10
2235.00,100.10
2234.00,100.10
2233.00,100.11
2232.00,100.12
2231.00,100.12
2230.00,100.12
2229.00,100.12
2228.00,100.12
2227.00,100.12
2226.00,100.12
2225.00,100.12
2224.00,100.12
2223.00,100.13
2222.00,100.13
2221.00,100.13
2220.00,100.13
2219.00,100.12
2218.00,100.12
2217.00,100.12
2216.00,100.12
2215.00,100.12
2214.00,100.12
2213.00,100.12
2212.00,100.12
2211.00,100.12
2210.00,100.12
2209.00,100.12
2208.00,100.12
2207.00,100.12
2206.00,100.12
2205.00,100.12
2204.00,100.12
2203.00,100.12
2202.00,100.12
2201.00,100.13
2200.00,100.13
2199.00,100.13
2198.00,100.12
2197.00,100.13
2196.00,100.13
2195.00,100.13
2194.00,100.13
2193.00,100.12
2192.00,100.12
2191.00,100.12
2190.00,100.12
2189.00,100.12
2188.00,100.13
2187.00,100.13
2186.00,100.12
2185.00,100.12
2184.00,100.13
2183.00,100.13
2182.00,100.13
2181.00,100.13
2180.00,100.13
2179.00,100.13
2178.00,100.13
2177.00,100.13
2176.00,100.13
2175.00,100.13
2174.00,100.13
2173.00,100.13
2172.00,100.14
2171.00,100.14
2170.00,100.13
2169.00,100.12
2168.00,100.12
2167.00,100.12
2166.00,100.12
2165.00,100.12
2164.00,100.13
2163.00,100.14
2162.00,100.14
2161.00,100.15
2160.00,100.15
2159.00,100.14
2158.00,100.13
2157.00,100.13
2156.00,100.13
2155.00,100.13
2154.00,100.12
2153.00,100.13
2152.00,100.13
2151.00,100.13
2150.00,100.13
2149.00,100.14
2148.00,100.14
2147.00,100.14
2146.00,100.14
2145.00,100.13
2144.00,100.14
2143.00,100.13
2142.00,100.13
2141.00,100.13
2140.00,100.13
2139.00,100.13
2138.00,100.12
2137.00,100.12
2136.00,100.13
2135.00,100.13
2134.00,100.13
2133.00,100.13
2132.00,100.12
2131.00,100.12
2130.00,100.12
2129.00,100.12
2128.00,100.12
2127.00,100.12
2126.00,100.12
2125.00,100.13
2124.00,100.13
2123.00,100.12
2122.00,100.12
2121.00,100.12
2120.00,100.12
2119.00,100.12
2118.00,100.12
2117.00,100.12
2116.00,100.12
2115.00,100.12
2114.00,100.12
2113.00,100.12
2112.00,100.13
2111.00,100.13
2110.00,100.13
2109.00,100.13
2108.00,100.13
2107.00,100.13
2106.00,100.12
2105.00,100.13
2104.00,100.13
2103.00,100.13
2102.00,100.13
2101.00,100.13
2100.00,100.13
2099.00,100.13
2098.00,100.12
2097.00,100.12
2096.00,100.12
2095.00,100.12
2094.00,100.11
2093.00,100.12
2092.00,100.13
2091.00,100.12
2090.00,100.12
2089.00,100.12
2088.00,100.13
2087.00,100.13
2086.00,100.13
2085.00,100.14
2084.00,100.14
2083.00,100.14
2082.00,100.13
2081.00,100.13
2080.00,100.14
2079.00,100.13
2078.00,100.12
2077.00,100.13
2076.00,100.14
2075.00,100.14
2074.00,100.14
2073.00,100.14
2072.00,100.13
2071.00,100.13
2070.00,100.12
2069.00,100.12
2068.00,100.13
2067.00,100.14
2066.00,100.14
2065.00,100.14
2064.00,100.14
2063.00,100.14
2062.00,100.13
2061.00,100.13
2060.00,100.13
2059.00,100.13
2058.00,100.13
2057.00,100.13
2056.00,100.13
2055.00,100.13
2054.00,100.13
2053.00,100.13
2052.00,100.14
2051.00,100.14
2050.00,100.14
2049.00,100.14
2048.00,100.14
2047.00,100.13
2046.00,100.12
2045.00,100.12
2044.00,100.12
2043.00,100.12
2042.00,100.12
2041.00,100.11
2040.00,100.12
2039.00,100.12
2038.00,100.12
2037.00,100.12
2036.00,100.13
2035.00,100.13
2034.00,100.13
2033.00,100.12
2032.00,100.12
2031.00,100.12
2030.00,100.11
2029.00,100.12
2028.00,100.13
2027.00,100.13
2026.00,100.13
2025.00,100.13
2024.00,100.13
2023.00,100.13
2022.00,100.12
2021.00,100.12
2020.00,100.13
2019.00,100.14
2018.00,100.14
2017.00,100.14
2016.00,100.14
2015.00,100.14
2014.00,100.13
2013.00,100.13
2012.00,100.13
2011.00,100.13
2010.00,100.12
2009.00,100.12
2008.00,100.12
2007.00,100.12
2006.00,100.12
2005.00,100.12
2004.00,100.13
2003.00,100.13
2002.00,100.12
2001.00,100.12
2000.00,100.13
1999.00,100.13
1998.00,100.12
1997.00,100.12
1996.00,100.12
1995.00,100.13
1994.00,100.14
1993.00,100.16
1992.00,100.16
1991.00,100.15
1990.00,100.14
1989.00,100.14
1988.00,100.14
1987.00,100.14
1986.00,100.13
1985.00,100.13
1984.00,100.13
1983.00,100.13
1982.00,100.13
1981.00,100.13
1980.00,100.13
1979.00,100.14
1978.00,100.14
1977.00,100.14
1976.00,100.13
1975.00,100.13
1974.00,100.13
1973.00,100.12
1972.00,100.12
1971.00,100.12
1970.00,100.13
1969.00,100.15
1968.00,100.16
1967.00,100.15
1966.00,100.14
1965.00,100.12
1964.00,100.11
1963.00,100.12
1962.00,100.13
1961.00,100.14
1960.00,100.14
1959.00,100.14
1958.00,100.14
1957.00,100.14
1956.00,100.14
1955.00,100.13
1954.00,100.14
1953.00,100.14
1952.00,100.13
1951.00,100.13
1950.00,100.13
1949.00,100.13
1948.00,100.13
1947.00,100.14
1946.00,100.15
1945.00,100.18
1944.00,100.20
1943.00,100.20
1942.00,100.18
1941.00,100.15
1940.00,100.13
1939.00,100.12
1938.00,100.13
1937.00,100.14
1936.00,100.14
1935.00,100.14
1934.00,100.14
1933.00,100.14
1932.00,100.14
1931.00,100.13
1930.00,100.12
1929.00,100.13
1928.00,100.13
1927.00,100.13
1926.00,100.13
1925.00,100.16
1924.00,100.18
1923.00,100.16
1922.00,100.14
1921.00,100.14
1920.00,100.16
1919.00,100.17
1918.00,100.15
1917.00,100.14
1916.00,100.12
1915.00,100.09
1914.00,100.09
1913.00,100.12
1912.00,100.15
1911.00,100.15
1910.00,100.15
1909.00,100.17
1908.00,100.17
1907.00,100.15
1906.00,100.13
1905.00,100.15
1904.00,100.16
1903.00,100.14
1902.00,100.11
1901.00,100.12
1900.00,100.14
1899.00,100.13
1898.00,100.12
1897.00,100.15
1896.00,100.18
1895.00,100.16
1894.00,100.13
1893.00,100.14
1892.00,100.19
1891.00,100.21
1890.00,100.21
1889.00,100.21
1888.00,100.19
1887.00,100.14
1886.00,100.11
1885.00,100.12
1884.00,100.15
1883.00,100.13
1882.00,100.10
1881.00,100.11
1880.00,100.13
1879.00,100.13
1878.00,100.11
1877.00,100.12
1876.00,100.14
1875.00,100.13
1874.00,100.10
1873.00,100.12
1872.00,100.18
1871.00,100.22
1870.00,100.25
1869.00,100.28
1868.00,100.28
1867.00,100.22
1866.00,100.14
1865.00,100.12
1864.00,100.14
1863.00,100.13
1862.00,100.10
1861.00,100.12
1860.00,100.16
1859.00,100.15
1858.00,100.13
1857.00,100.14
1856.00,100.17
1855.00,100.16
1854.00,100.13
1853.00,100.13
1852.00,100.13
1851.00,100.11
1850.00,100.10
1849.00,100.11
1848.00,100.14
1847.00,100.16
1846.00,100.17
1845.00,100.19
1844.00,100.17
1843.00,100.12
1842.00,100.07
1841.00,100.06
1840.00,100.09
1839.00,100.11
1838.00,100.11
1837.00,100.13
1836.00,100.13
1835.00,100.12
1834.00,100.12
1833.00,100.15
1832.00,100.22
1831.00,100.29
1830.00,100.31
1829.00,100.28
1828.00,100.23
1827.00,100.19
1826.00,100.15
1825.00,100.14
1824.00,100.14
1823.00,100.13
1822.00,100.10
1821.00,100.10
1820.00,100.13
1819.00,100.15
1818.00,100.12
1817.00,100.12
1816.00,100.15
1815.00,100.16
1814.00,100.14
1813.00,100.13
1812.00,100.18
1811.00,100.18
1810.00,100.13
1809.00,100.11
1808.00,100.13
1807.00,100.13
1806.00,100.10
1805.00,100.10
1804.00,100.14
1803.00,100.13
1802.00,100.09
1801.00,100.09
1800.00,100.13
1799.00,100.13
1798.00,100.09
1797.00,100.08
1796.00,100.09
1795.00,100.07
1794.00,100.00
1793.00,99.99
1792.00,100.05
1791.00,100.07
1790.00,100.04
1789.00,100.03
1788.00,100.07
1787.00,100.07
1786.00,100.04
1785.00,100.05
1784.00,100.09
1783.00,100.12
1782.00,100.12
1781.00,100.11
1780.00,100.10
1779.00,100.09
1778.00,100.07
1777.00,100.07
1776.00,100.08
1775.00,100.10
1774.00,100.10
1773.00,100.08
1772.00,100.09
1771.00,100.11
1770.00,100.07
1769.00,100.00
1768.00,99.99
1767.00,100.02
1766.00,100.04
1765.00,100.03
1764.00,100.06
1763.00,100.11
1762.00,100.12
1761.00,100.08
1760.00,100.07
1759.00,100.09
1758.00,100.09
1757.00,100.04
1756.00,100.00
1755.00,99.98
1754.00,99.91
1753.00,99.77
1752.00,99.69
1751.00,99.77
1750.00,99.92
1749.00,100.01
1748.00,100.04
1747.00,100.08
1746.00,100.11
1745.00,100.09
1744.00,100.07
1743.00,100.09
1742.00,100.08
1741.00,100.04
1740.00,100.02
1739.00,100.03
1738.00,100.02
1737.00,99.94
1736.00,99.79
1735.00,99.67
1734.00,99.67
1733.00,99.78
1732.00,99.90
1731.00,99.98
1730.00,100.04
1729.00,100.07
1728.00,100.08
1727.00,100.09
1726.00,100.08
1725.00,100.09
1724.00,100.10
1723.00,100.08
1722.00,100.04
1721.00,100.06
1720.00,100.14
1719.00,100.13
1718.00,100.01
1717.00,99.98
1716.00,100.04
1715.00,100.01
1714.00,99.94
1713.00,99.98
1712.00,100.08
1711.00,100.09
1710.00,100.04
1709.00,100.05
1708.00,100.14
1707.00,100.17
1706.00,100.13
1705.00,100.13
1704.00,100.15
1703.00,100.06
1702.00,99.86
1701.00,99.79
1700.00,99.90
1699.00,99.98
1698.00,100.01
1697.00,100.10
1696.00,100.21
1695.00,100.19
1694.00,100.07
1693.00,100.00
1692.00,100.03
1691.00,100.06
1690.00,100.06
1689.00,100.02
1688.00,100.04
1687.00,100.13
1686.00,100.23
1685.00,100.28
1684.00,100.24
1683.00,100.15
1682.00,100.10
1681.00,100.06
1680.00,100.00
1679.00,99.99
1678.00,100.01
1677.00,100.00
1676.00,99.93
1675.00,99.95
1674.00,100.04
1673.00,100.07
1672.00,100.06
1671.00,100.07
1670.00,100.13
1669.00,100.15
1668.00,100.10
1667.00,100.07
1666.00,100.09
1665.00,100.11
1664.00,100.10
1663.00,100.08
1662.00,100.10
1661.00,100.08
1660.00,100.01
1659.00,99.99
1658.00,100.04
1657.00,100.08
1656.00,100.11
1655.00,100.17
1654.00,100.23
1653.00,100.28
1652.00,100.28
1651.00,100.22
1650.00,100.15
1649.00,100.11
1648.00,100.09
1647.00,100.05
1646.00,100.01
1645.00,100.01
1644.00,100.01
1643.00,99.99
1642.00,99.99
1641.00,100.00
1640.00,100.02
1639.00,100.06
1638.00,100.07
1637.00,100.05
1636.00,100.03
1635.00,100.06
1634.00,100.06
1633.00,100.06
1632.00,100.04
1631.00,100.02
1630.00,100.05
1629.00,100.10
1628.00,100.12
1627.00,100.11
1626.00,100.12
1625.00,100.12
1624.00,100.10
1623.00,100.08
1622.00,100.10
1621.00,100.11
1620.00,100.08
1619.00,100.08
1618.00,100.12
1617.00,100.16
1616.00,100.13
1615.00,100.09
1614.00,100.10
1613.00,100.13
1612.00,100.09
1611.00,100.06
1610.00,100.10
1609.00,100.15
1608.00,100.13
1607.00,100.10
1606.00,100.14
1605.00,100.16
1604.00,100.12
1603.00,100.11
1602.00,100.15
1601.00,100.16
1600.00,100.12
1599.00,100.10
1598.00,100.15
1597.00,100.18
1596.00,100.17
1595.00,100.16
1594.00,100.19
1593.00,100.19
1592.00,100.15
1591.00,100.12
1590.00,100.13
1589.00,100.15
1588.00,100.13
1587.00,100.10
1586.00,100.14
1585.00,100.16
1584.00,100.11
1583.00,100.09
1582.00,100.15
1581.00,100.19
1580.00,100.17
1579.00,100.19
1578.00,100.27
1577.00,100.29
1576.00,100.20
1575.00,100.14
1574.00,100.14
1573.00,100.14
1572.00,100.11
1571.00,100.13
1570.00,100.20
1569.00,100.19
1568.00,100.08
1567.00,100.03
1566.00,100.09
1565.00,100.11
1564.00,100.07
1563.00,100.09
1562.00,100.17
1561.00,100.14
1560.00,99.99
1559.00,100.00
1558.00,100.13
1557.00,100.12
1556.00,99.99
1555.00,99.90
1554.00,99.90
1553.00,99.90
1552.00,99.89
1551.00,99.93
1550.00,99.96
1549.00,99.94
1548.00,99.87
1547.00,99.82
1546.00,99.85
1545.00,99.92
1544.00,99.96
1543.00,99.95
1542.00,99.91
1541.00,99.88
1540.00,99.89
1539.00,99.93
1538.00,99.98
1537.00,100.00
1536.00,100.00
1535.00,100.01
1534.00,100.04
1533.00,100.06
1532.00,100.07
1531.00,100.04
1530.00,100.02
1529.00,100.03
1528.00,100.05
1527.00,100.02
1526.00,99.98
1525.00,99.97
1524.00,100.02
1523.00,100.06
1522.00,100.09
1521.00,100.10
1520.00,100.11
1519.00,100.11
1518.00,100.08
1517.00,100.05
1516.00,100.03
1515.00,99.99
1514.00,99.91
1513.00,99.88
1512.00,99.93
1511.00,99.98
1510.00,99.95
1509.00,99.86
1508.00,99.82
1507.00,99.81
1506.00,99.81
1505.00,99.84
1504.00,99.92
1503.00,99.99
1502.00,100.02
1501.00,100.04
1500.00,100.10
1499.00,100.14
1498.00,100.04
1497.00,99.91
1496.00,99.91
1495.00,99.94
1494.00,99.93
1493.00,99.92
1492.00,99.96
1491.00,100.00
1490.00,100.00
1489.00,100.03
1488.00,100.12
1487.00,100.12
1486.00,100.08
1485.00,100.10
1484.00,100.12
1483.00,100.12
1482.00,100.10
1481.00,100.09
1480.00,100.10
1479.00,100.07
1478.00,100.03
1477.00,100.03
1476.00,100.01
1475.00,99.90
1474.00,99.77
1473.00,99.72
1472.00,99.80
1471.00,99.89
1470.00,99.94
1469.00,99.99
1468.00,100.05
1467.00,100.06
1466.00,100.03
1465.00,99.99
1464.00,99.98
1463.00,99.99
1462.00,99.99
1461.00,99.99
1460.00,100.02
1459.00,100.05
1458.00,99.98
1457.00,99.85
1456.00,99.81
1455.00,99.87
1454.00,99.93
1453.00,99.95
1452.00,99.98
1451.00,100.03
1450.00,100.04
1449.00,100.02
1448.00,100.04
1447.00,100.10
1446.00,100.13
1445.00,100.08
1444.00,100.06
1443.00,100.11
1442.00,100.12
1441.00,100.06
1440.00,100.03
1439.00,100.05
1438.00,100.03
1437.00,99.94
1436.00,99.93
1435.00,100.01
1434.00,100.06
1433.00,100.04
1432.00,100.05
1431.00,100.13
1430.00,100.15
1429.00,100.10
1428.00,100.06
1427.00,100.09
1426.00,100.12
1425.00,100.05
1424.00,100.00
1423.00,100.05
1422.00,100.12
1421.00,100.09
1420.00,100.05
1419.00,100.09
1418.00,100.08
1417.00,99.99
1416.00,99.97
1415.00,100.05
1414.00,100.12
1413.00,100.09
1412.00,100.06
1411.00,100.12
1410.00,100.16
1409.00,100.12
1408.00,100.08
1407.00,100.11
1406.00,100.14
1405.00,100.11
1404.00,100.06
1403.00,100.08
1402.00,100.10
1401.00,100.07
1400.00,100.03
1399.00,100.04
1398.00,100.06
1397.00,100.06
1396.00,100.06
1395.00,100.11
1394.00,100.14
1393.00,100.10
1392.00,100.05
1391.00,100.07
1390.00,100.12
1389.00,100.13
1388.00,100.11
1387.00,100.10
1386.00,100.10
1385.00,100.09
1384.00,100.07
1383.00,100.09
1382.00,100.11
1381.00,100.10
1380.00,100.08
1379.00,100.08
1378.00,100.09
1377.00,100.11
1376.00,100.11
1375.00,100.12
1374.00,100.14
1373.00,100.13
1372.00,100.10
1371.00,100.08
1370.00,100.11
1369.00,100.12
1368.00,100.11
1367.00,100.10
1366.00,100.12
1365.00,100.15
1364.00,100.15
1363.00,100.15
1362.00,100.15
1361.00,100.12
1360.00,100.09
1359.00,100.08
1358.00,100.09
1357.00,100.10
1356.00,100.09
1355.00,100.10
1354.00,100.11
1353.00,100.11
1352.00,100.10
1351.00,100.10
1350.00,100.11
1349.00,100.10
1348.00,100.09
1347.00,100.09
1346.00,100.11
1345.00,100.11
1344.00,100.10
1343.00,100.10
1342.00,100.10
1341.00,100.08
1340.00,100.05
1339.00,100.05
1338.00,100.07
1337.00,100.08
1336.00,100.07
1335.00,100.07
1334.00,100.08
1333.00,100.08
1332.00,100.08
1331.00,100.09
1330.00,100.11
1329.00,100.11
1328.00,100.10
1327.00,100.10
1326.00,100.11
1325.00,100.10
1324.00,100.09
1323.00,100.09
1322.00,100.10
1321.00,100.09
1320.00,100.07
1319.00,100.07
1318.00,100.09
1317.00,100.08
1316.00,100.07
1315.00,100.07
1314.00,100.08
1313.00,100.08
1312.00,100.08
1311.00,100.10
1310.00,100.12
1309.00,100.11
1308.00,100.09
1307.00,100.08
1306.00,100.09
1305.00,100.08
1304.00,100.06
1303.00,100.07
1302.00,100.08
1301.00,100.08
1300.00,100.08
1299.00,100.08
1298.00,100.10
1297.00,100.10
1296.00,100.09
1295.00,100.09
1294.00,100.09
1293.00,100.08
1292.00,100.06
1291.00,100.06
1290.00,100.07
1289.00,100.07
1288.00,100.06
1287.00,100.08
1286.00,100.11
1285.00,100.11
1284.00,100.10
1283.00,100.10
1282.00,100.10
1281.00,100.10
1280.00,100.09
1279.00,100.09
1278.00,100.10
1277.00,100.08
1276.00,100.06
1275.00,100.07
1274.00,100.08
1273.00,100.08
1272.00,100.07
1271.00,100.07
1270.00,100.08
1269.00,100.07
1268.00,100.05
1267.00,100.06
1266.00,100.08
1265.00,100.08
1264.00,100.07
1263.00,100.08
1262.00,100.10
1261.00,100.10
1260.00,100.09
1259.00,100.09
1258.00,100.09
1257.00,100.08
1256.00,100.06
1255.00,100.07
1254.00,100.09
1253.00,100.09
1252.00,100.08
1251.00,100.08
1250.00,100.09
1249.00,100.08
1248.00,100.06
1247.00,100.06
1246.00,100.07
1245.00,100.07
1244.00,100.05
1243.00,100.06
1242.00,100.07
1241.00,100.07
1240.00,100.06
1239.00,100.06
1238.00,100.07
1237.00,100.05
1236.00,100.04
1235.00,100.04
1234.00,100.06
1233.00,100.06
1232.00,100.06
1231.00,100.07
1230.00,100.08
1229.00,100.07
1228.00,100.04
1227.00,100.04
1226.00,100.05
1225.00,100.05
1224.00,100.04
1223.00,100.04
1222.00,100.05
1221.00,100.04
1220.00,100.03
1219.00,100.03
1218.00,100.05
1217.00,100.05
1216.00,100.05
1215.00,100.05
1214.00,100.06
1213.00,100.03
1212.00,100.01
1211.00,100.01
1210.00,100.02
1209.00,100.02
1208.00,100.02
1207.00,100.03
1206.00,100.05
1205.00,100.05
1204.00,100.03
1203.00,100.02
1202.00,100.01
1201.00,99.99
1200.00,99.97
1199.00,99.99
1198.00,100.01
1197.00,100.00
1196.00,99.99
1195.00,100.00
1194.00,100.02
1193.00,100.03
1192.00,100.02
1191.00,100.02
1190.00,100.03
1189.00,100.03
1188.00,100.02
1187.00,100.02
1186.00,100.03
1185.00,100.02
1184.00,100.00
1183.00,100.01
1182.00,100.03
1181.00,100.02
1180.00,100.00
1179.00,99.99
1178.00,99.99
1177.00,99.99
1176.00,99.99
1175.00,100.00
1174.00,100.03
1173.00,100.02
1172.00,100.01
1171.00,100.02
1170.00,100.03
1169.00,100.02
1168.00,100.00
1167.00,100.00
1166.00,100.01
1165.00,100.00
1164.00,99.99
1163.00,99.99
1162.00,100.00
1161.00,100.00
1160.00,99.99
1159.00,100.00
1158.00,100.00
1157.00,99.97
1156.00,99.95
1155.00,99.96
1154.00,99.98
1153.00,99.98
1152.00,99.97
1151.00,99.98
1150.00,99.98
1149.00,99.97
1148.00,99.96
1147.00,99.98
1146.00,99.99
1145.00,99.97
1144.00,99.94
1143.00,99.94
1142.00,99.97
1141.00,99.98
1140.00,99.98
1139.00,99.99
1138.00,100.00
1137.00,99.98
1136.00,99.97
1135.00,99.96
1134.00,99.96
1133.00,99.94
1132.00,99.91
1131.00,99.90
1130.00,99.92
1129.00,99.92
1128.00,99.93
1127.00,99.96
1126.00,100.00
1125.00,100.01
1124.00,100.00
1123.00,99.99
1122.00,99.98
1121.00,99.96
1120.00,99.92
1119.00,99.93
1118.00,99.95
1117.00,99.96
1116.00,99.95
1115.00,99.94
1114.00,99.92
1113.00,99.89
1112.00,99.87
1111.00,99.89
1110.00,99.91
1109.00,99.90
1108.00,99.87
1107.00,99.88
1106.00,99.90
1105.00,99.89
1104.00,99.87
1103.00,99.88
1102.00,99.91
1101.00,99.89
1100.00,99.86
1099.00,99.86
1098.00,99.87
1097.00,99.86
1096.00,99.85
1095.00,99.88
1094.00,99.92
1093.00,99.93
1092.00,99.92
1091.00,99.93
1090.00,99.94
1089.00,99.91
1088.00,99.88
1087.00,99.89
1086.00,99.92
1085.00,99.92
1084.00,99.90
1083.00,99.89
1082.00,99.88
1081.00,99.83
1080.00,99.79
1079.00,99.79
1078.00,99.84
1077.00,99.87
1076.00,99.86
1075.00,99.86
1074.00,99.85
1073.00,99.82
1072.00,99.79
1071.00,99.79
1070.00,99.80
1069.00,99.75
1068.00,99.69
1067.00,99.68
1066.00,99.71
1065.00,99.72
1064.00,99.71
1063.00,99.73
1062.00,99.76
1061.00,99.73
1060.00,99.70
1059.00,99.70
1058.00,99.72
1057.00,99.70
1056.00,99.69
1055.00,99.73
1054.00,99.78
1053.00,99.76
1052.00,99.70
1051.00,99.68
1050.00,99.69
1049.00,99.69
1048.00,99.69
1047.00,99.72
1046.00,99.75
1045.00,99.74
1044.00,99.72
1043.00,99.74
1042.00,99.78
1041.00,99.76
1040.00,99.71
1039.00,99.70
1038.00,99.70
1037.00,99.69
1036.00,99.68
1035.00,99.71
1034.00,99.74
1033.00,99.71
1032.00,99.65
1031.00,99.66
1030.00,99.67
1029.00,99.63
1028.00,99.58
1027.00,99.60
1026.00,99.65
1025.00,99.67
1024.00,99.66
1023.00,99.67
1022.00,99.67
1021.00,99.58
1020.00,99.49
1019.00,99.48
1018.00,99.54
1017.00,99.57
1016.00,99.60
1015.00,99.67
1014.00,99.73
1013.00,99.71
1012.00,99.66
1011.00,99.64
1010.00,99.65
1009.00,99.62
1008.00,99.60
1007.00,99.62
1006.00,99.65
1005.00,99.62
1004.00,99.59
1003.00,99.63
1002.00,99.65
1001.00,99.54
1000.00,99.41
999.00,99.40
998.00,99.46
997.00,99.46
996.00,99.41
995.00,99.39
994.00,99.35
993.00,99.27
992.00,99.21
991.00,99.28
990.00,99.39
989.00,99.38
988.00,99.30
987.00,99.30
986.00,99.37
985.00,99.38
984.00,99.36
983.00,99.40
982.00,99.43
981.00,99.36
980.00,99.28
979.00,99.31
978.00,99.39
977.00,99.38
976.00,99.35
975.00,99.42
974.00,99.49
973.00,99.42
972.00,99.31
971.00,99.32
970.00,99.38
969.00,99.30
968.00,99.21
967.00,99.31
966.00,99.46
965.00,99.40
964.00,99.25
963.00,99.27
962.00,99.38
961.00,99.36
960.00,99.28
959.00,99.34
958.00,99.44
957.00,99.29
956.00,99.05
955.00,99.09
954.00,99.33
953.00,99.43
952.00,99.40
951.00,99.47
950.00,99.56
949.00,99.42
948.00,99.19
947.00,99.24
946.00,99.45
945.00,99.38
944.00,99.09
943.00,98.91
942.00,98.76
941.00,98.40
940.00,98.16
939.00,98.57
938.00,99.28
937.00,99.50
936.00,99.16
935.00,98.82
934.00,98.64
933.00,98.36
932.00,98.22
931.00,98.66
930.00,99.27
929.00,99.31
928.00,99.02
927.00,99.10
926.00,99.25
925.00,98.63
924.00,97.52
923.00,97.04
922.00,97.29
921.00,97.48
920.00,97.57
919.00,97.90
918.00,97.86
917.00,96.87
916.00,96.08
915.00,96.81
914.00,98.24
913.00,98.75
912.00,98.75
911.00,99.48
910.00,99.98
909.00,98.75
908.00,97.40
907.00,98.40
906.00,100.62
905.00,100.71
904.00,98.65
903.00,97.51
902.00,97.87
901.00,97.68
900.00,97.68
899.00,100.29
898.00,104.08
897.00,105.02
896.00,102.78
895.00,100.96
894.00,101.09
893.00,100.50
892.00,99.56
891.00,102.26
890.00,107.17
889.00,108.70
888.00,107.15
887.00,106.07
886.00,106.91
885.00,105.67
884.00,102.22
883.00,100.67
882.00,102.62
881.00,105.82
880.00,109.43
879.00,109.65
878.00,113.19
877.00,127.08
876.00,133.70
875.00,119.32
874.00,103.20
873.00,91.11
872.00,90.68
871.00,100.80
870.00,129.01
869.00,175.35
868.00,221.64
867.00,195.28
866.00,152.96
865.00,156.70
864.00,167.95
863.00,188.62
862.00,196.99
861.00,182.31
860.00,197.91
859.00,166.43
858.00,103.03
857.00,120.26
856.00,118.60
855.00,97.72
854.00,103.42
853.00,115.82
852.00,125.53
851.00,121.36
850.00,124.21
849.00,161.22
848.00,199.83
847.00,206.63
846.00,177.66
845.00,173.59
844.00,186.79
843.00,224.23
842.00,296.40
841.00,268.51
840.00,240.12
839.00,214.86
838.00,164.01
837.00,201.13
836.00,203.86
835.00,154.64
834.00,104.07
833.00,109.62
832.00,159.32
831.00,345.05
830.00,1163.38
829.00,1340.25
828.00,349.35
827.00,218.75
826.00,196.25
825.00,157.48
824.00,194.45
823.00,216.08
822.00,204.42
821.00,130.17
820.00,104.95
819.00,76.54
818.00,57.52
817.00,105.78
816.00,138.55
815.00,144.25
814.00,144.34
813.00,158.32
812.00,181.63
811.00,206.65
810.00,224.91
809.00,179.03
808.00,144.53
807.00,129.03
806.00,148.87
805.00,205.83
804.00,209.93
803.00,223.33
802.00,246.30
801.00,225.86
800.00,205.77
799.00,182.46
798.00,132.25
797.00,161.63
796.00,184.56
795.00,183.62
794.00,261.60
793.00,119.34
792.00,84.67
791.00,92.58
790.00,101.39
789.00,104.79
788.00,116.66
787.00,112.43
786.00,117.70
785.00,166.70
784.00,305.34
783.00,499.09
782.00,259.74
781.00,161.27
780.00,125.68
779.00,148.57
778.00,188.24
777.00,311.89
776.00,308.56
775.00,717.97
774.00,2002.00
773.00,654.66
772.00,319.63
771.00,566.34
770.00,749.88
769.00,464.39
768.00,239.55
767.00,238.41
766.00,196.09
765.00,157.54
764.00,134.65
763.00,128.64
762.00,139.82
761.00,190.60
760.00,180.90
759.00,131.29
758.00,82.02
757.00,112.08
756.00,157.10
755.00,203.75
754.00,251.78
753.00,230.05
752.00,211.69
751.00,222.52
750.00,237.76
749.00,229.81
748.00,213.58
747.00,166.85
746.00,124.70
745.00,139.94
744.00,168.60
743.00,134.12
742.00,245.86
741.00,335.68
740.00,446.31
739.00,1115.45
738.00,409.05
737.00,744.68
736.00,285.60
735.00,156.92
734.00,186.77
733.00,150.21
732.00,178.62
731.00,200.16
730.00,339.48
729.00,356.97
728.00,301.07
727.00,280.83
726.00,217.21
725.00,173.11
724.00,166.58
723.00,192.56
722.00,421.83
721.00,537.04
720.00,426.11
719.00,392.58
718.00,339.70
717.00,349.56
716.00,252.13
715.00,260.94
714.00,247.83
713.00,190.21
712.00,154.25
711.00,123.60
710.00,104.77
709.00,108.12
708.00,130.42
707.00,149.32
706.00,144.20
705.00,144.72
704.00,143.32
703.00,136.62
702.00,161.43
701.00,169.25
700.00,149.96
699.00,145.32
698.00,237.19
697.00,393.44
696.00,420.97
695.00,306.95
694.00,134.78
693.00,138.81
692.00,165.67
691.00,194.97
690.00,272.51
689.00,254.82
688.00,216.81
687.00,210.52
686.00,219.24
685.00,208.66
684.00,215.87
683.00,226.79
682.00,174.83
681.00,156.16
680.00,140.35
679.00,98.25
678.00,57.24
677.00,66.15
676.00,79.72
675.00,70.75
674.00,67.82
673.00,111.92
672.00,132.24
671.00,117.29
670.00,120.58
669.00,139.86
668.00,159.52
667.00,165.74
666.00,136.77
665.00,139.25
664.00,161.93
663.00,182.89
662.00,171.29
661.00,104.23
660.00,82.79
659.00,66.92
658.00,55.02
657.00,95.10
656.00,117.10
655.00,172.81
654.00,502.12
653.00,412.09
652.00,283.96
651.00,264.47
650.00,224.27
649.00,148.33
648.00,156.05
647.00,169.69
646.00,148.21
645.00,130.62
644.00,113.50
643.00,87.25
642.00,60.72
641.00,74.75
640.00,93.29
639.00,110.36
638.00,232.27
637.00,252.31
636.00,167.44
635.00,96.55
634.00,41.73
633.00,83.29
632.00,130.69
631.00,233.53
630.00,691.24
629.00,595.11
628.00,383.19
627.00,397.61
626.00,307.97
625.00,173.25
624.00,147.91
623.00,146.85
622.00,155.43
621.00,151.35
620.00,141.04
619.00,125.32
618.00,110.56
617.00,132.94
616.00,145.59
615.00,156.20
614.00,162.42
613.00,199.51
612.00,204.39
611.00,309.53
610.00,773.80
609.00,392.97
608.00,228.07
607.00,207.17
606.00,173.26
605.00,165.41
604.00,161.82
603.00,193.67
602.00,287.27
601.00,270.98
600.00,242.66
599.00,262.20
598.00,269.48
597.00,199.42
596.00,162.74
595.00,138.24
594.00,98.85
593.00,109.73
592.00,154.76
591.00,236.99
590.00,386.52
589.00,355.09
588.00,187.56
587.00,129.39
586.00,117.70
585.00,163.79
584.00,205.55
583.00,263.92
582.00,317.75
581.00,258.65
580.00,246.32
579.00,295.40
578.00,265.56
577.00,237.65
576.00,205.98
575.00,181.33
574.00,95.46
573.00,105.86
572.00,123.36
571.00,113.08
570.00,81.76
569.00,87.96
568.00,109.28
567.00,118.92
566.00,115.33
565.00,136.16
564.00,154.81
563.00,168.53
562.00,377.87
561.00,493.89
560.00,400.42
559.00,399.07
558.00,282.52
557.00,238.76
556.00,217.64
555.00,197.55
554.00,181.77
553.00,166.32
552.00,164.84
551.00,150.29
550.00,112.81
549.00,118.65
548.00,134.65
547.00,152.28
546.00,246.00
545.00,370.11
544.00,381.04
543.00,490.85
542.00,526.16
541.00,394.66
540.00,353.60
539.00,748.02
538.00,728.01
537.00,320.36
536.00,177.35
535.00,154.93
534.00,159.16
533.00,174.91
532.00,179.86
531.00,183.42
530.00,225.30
529.00,265.01
528.00,323.93
527.00,447.77
526.00,216.21
525.00,309.77
524.00,368.02
523.00,264.00
522.00,138.68
521.00,111.04
520.00,107.14
519.00,89.13
518.00,109.80
517.00,190.29
516.00,275.21
515.00,353.15
514.00,288.27
513.00,199.01
512.00,154.20
511.00,135.18
510.00,147.13
509.00,157.87
508.00,168.67
507.00,166.32
506.00,135.75
505.00,121.67
504.00,140.46
503.00,173.97
502.00,246.36
501.00,186.46
500.00,159.66
499.00,149.13
498.00,159.83
497.00,187.79
496.00,197.06
495.00,204.03
494.00,208.63
493.00,188.73
492.00,178.65
491.00,226.92
490.00,283.72
489.00,274.07
488.00,243.28
487.00,265.80
486.00,321.86
485.00,324.58
484.00,298.96
483.00,314.22
482.00,169.35
481.00,189.13
480.00,246.13
479.00,219.05
478.00,128.57
477.00,107.83
476.00,119.44
475.00,91.09
474.00,94.49
473.00,163.88
472.00,384.82
471.00,1460.55
470.00,249.58
469.00,410.63
468.00,1615.74
467.00,466.32
466.00,147.58
465.00,146.11
464.00,153.84
463.00,163.82
462.00,146.59
461.00,151.31
460.00,139.72
459.00,111.94
458.00,81.96
457.00,96.83
456.00,129.75
455.00,190.96
454.00,385.79
453.00,333.83
452.00,261.02
451.00,246.20
450.00,189.33
