Created as New Dataset,Sample 001 By Administrator Date Tuesday, October 14 2025
cm-1,%T
4000.00,99.99
3999.00,99.98
3998.00,99.97
3997.00,99.97
3996.00,99.97
3995.00,99.97
3994.00,99.98
3993.00,99.98
3992.00,99.98
3991.00,99.98
3990.00,99.99
3989.00,99.99
3988.00,99.99
3987.00,99.99
3986.00,99.98
3985.00,99.98
3984.00,99.99
3983.00,99.99
3982.00,99.99
3981.00,99.98
3980.00,99.98
3979.00,99.97
3978.00,99.97
3977.00,99.97
3976.00,99.97
3975.00,99.97
3974.00,99.98
3973.00,99.98
3972.00,99.98
3971.00,99.98
3970.00,99.97
3969.00,99.96
3968.00,99.96
3967.00,99.96
3966.00,99.96
3965.00,99.97
3964.00,99.98
3963.00,99.99
3962.00,100.00
3961.00,100.00
3960.00,100.00
3959.00,100.00
3958.00,100.00
3957.00,99.99
3956.00,99.99
3955.00,99.98
3954.00,99.98
3953.00,99.97
3952.00,99.97
3951.00,99.97
3950.00,99.97
3949.00,99.98
3948.00,99.99
3947.00,100.00
3946.00,100.00
3945.00,100.01
3944.00,100.01
3943.00,100.00
3942.00,100.00
3941.00,100.00
3940.00,99.99
3939.00,99.99
3938.00,99.99
3937.00,99.98
3936.00,99.98
3935.00,99.97
3934.00,99.97
3933.00,99.98
3932.00,99.98
3931.00,99.98
3930.00,99.98
3929.00,99.99
3928.00,99.99
3927.00,99.99
3926.00,99.99
3925.00,99.99
3924.00,99.99
3923.00,99.99
3922.00,99.99
3921.00,99.99
3920.00,99.99
3919.00,99.98
3918.00,99.98
3917.00,99.99
3916.00,99.99
3915.00,99.99
3914.00,99.99
3913.00,99.99
3912.00,99.99
3911.00,99.99
3910.00,99.99
3909.00,99.99
3908.00,99.99
3907.00,99.99
3906.00,99.99
3905.00,100.00
3904.00,100.00
3903.00,100.01
3902.00,100.00
3901.00,100.00
3900.00,100.00
3899.00,99.99
3898.00,99.99
3897.00,99.99
3896.00,100.00
3895.00,100.00
3894.00,100.01
3893.00,100.02
3892.00,100.03
3891.00,100.03
3890.00,100.02
3889.00,100.01
3888.00,100.01
3887.00,100.01
3886.00,100.01
3885.00,100.00
3884.00,99.99
3883.00,99.99
3882.00,99.98
3881.00,99.98
3880.00,99.98
3879.00,99.99
3878.00,99.99
3877.00,99.99
3876.00,99.99
3875.00,99.99
3874.00,99.99
3873.00,100.00
3872.00,100.02
3871.00,100.04
3870.00,100.04
3869.00,100.02
3868.00,100.01
3867.00,100.01
3866.00,100.00
3865.00,100.00
3864.00,99.99
3863.00,100.00
3862.00,100.01
3861.00,100.01
3860.00,100.01
3859.00,99.99
3858.00,99.96
3857.00,99.91
3856.00,99.88
3855.00,99.89
3854.00,99.92
3853.00,99.93
3852.00,99.93
3851.00,99.95
3850.00,99.97
3849.00,99.97
3848.00,99.98
3847.00,99.98
3846.00,99.99
3845.00,99.99
3844.00,100.01
3843.00,100.01
3842.00,100.02
3841.00,100.03
3840.00,100.04
3839.00,100.05
3838.00,100.05
3837.00,100.04
3836.00,100.03
3835.00,100.03
3834.00,100.02
3833.00,100.01
3832.00,100.00
3831.00,99.99
3830.00,99.98
3829.00,99.98
3828.00,99.99
3827.00,99.99
3826.00,100.00
3825.00,100.00
3824.00,100.01
3823.00,100.02
3822.00,100.03
3821.00,100.02
3820.00,100.01
3819.00,100.01
3818.00,100.02
3817.00,100.02
3816.00,100.00
3815.00,99.98
3814.00,99.98
3813.00,99.99
3812.00,100.00
3811.00,99.99
3810.00,99.99
3809.00,100.00
3808.00,100.02
3807.00,100.02
3806.00,100.02
3805.00,100.01
3804.00,100.02
3803.00,100.02
3802.00,100.01
3801.00,99.99
3800.00,99.97
3799.00,99.97
3798.00,99.98
3797.00,100.00
3796.00,100.00
3795.00,100.00
3794.00,100.00
3793.00,100.00
3792.00,100.00
3791.00,100.00
3790.00,100.00
3789.00,99.99
3788.00,99.98
3787.00,99.97
3786.00,99.97
3785.00,99.98
3784.00,99.99
3783.00,99.99
3782.00,99.99
3781.00,99.98
3780.00,99.98
3779.00,99.99
3778.00,100.00
3777.00,100.00
3776.00,100.00
3775.00,100.00
3774.00,99.99
3773.00,99.99
3772.00,99.99
3771.00,99.99
3770.00,99.99
3769.00,100.00
3768.00,100.01
3767.00,100.01
3766.00,100.01
3765.00,100.00
3764.00,100.00
3763.00,99.99
3762.00,100.00
3761.00,100.01
3760.00,100.02
3759.00,100.03
3758.00,100.02
3757.00,100.01
3756.00,100.00
3755.00,99.99
3754.00,99.98
3753.00,99.96
3752.00,99.93
3751.00,99.90
3750.00,99.89
3749.00,99.89
3748.00,99.89
3747.00,99.89
3746.00,99.90
3745.00,99.89
3744.00,99.89
3743.00,99.90
3742.00,99.93
3741.00,99.96
3740.00,99.96
3739.00,99.96
3738.00,99.96
3737.00,99.97
3736.00,99.98
3735.00,99.99
3734.00,100.00
3733.00,100.01
3732.00,100.00
3731.00,99.99
3730.00,99.98
3729.00,99.98
3728.00,99.98
3727.00,99.99
3726.00,100.00
3725.00,100.00
3724.00,100.00
3723.00,100.00
3722.00,99.99
3721.00,99.99
3720.00,99.99
3719.00,99.99
3718.00,100.00
3717.00,100.00
3716.00,100.00
3715.00,100.00
3714.00,99.99
3713.00,99.99
3712.00,99.99
3711.00,100.00
3710.00,100.00
3709.00,100.00
3708.00,100.00
3707.00,100.00
3706.00,100.00
3705.00,99.99
3704.00,99.99
3703.00,99.99
3702.00,99.99
3701.00,99.99
3700.00,99.99
3699.00,99.99
3698.00,99.98
3697.00,99.97
3696.00,99.98
3695.00,99.98
3694.00,99.99
3693.00,99.99
3692.00,100.00
3691.00,100.01
3690.00,100.02
3689.00,100.00
3688.00,99.98
3687.00,99.96
3686.00,99.96
3685.00,99.97
3684.00,99.98
3683.00,99.99
3682.00,99.99
3681.00,100.00
3680.00,100.00
3679.00,100.01
3678.00,100.02
3677.00,100.03
3676.00,100.03
3675.00,100.01
3674.00,100.00
3673.00,100.01
3672.00,100.02
3671.00,100.02
3670.00,100.01
3669.00,99.99
3668.00,99.98
3667.00,99.98
3666.00,99.98
3665.00,99.98
3664.00,99.99
3663.00,99.99
3662.00,99.99
3661.00,100.00
3660.00,100.00
3659.00,100.01
3658.00,100.02
3657.00,100.02
3656.00,100.02
3655.00,100.02
3654.00,100.02
3653.00,100.03
3652.00,100.04
3651.00,100.06
3650.00,100.06
3649.00,100.04
3648.00,100.01
3647.00,99.99
3646.00,99.99
3645.00,99.99
3644.00,99.99
3643.00,99.98
3642.00,99.98
3641.00,99.98
3640.00,99.98
3639.00,99.98
3638.00,99.98
3637.00,99.99
3636.00,99.99
3635.00,100.00
3634.00,100.00
3633.00,100.00
3632.00,100.00
3631.00,100.01
3630.00,100.03
3629.00,100.03
3628.00,100.01
3627.00,99.99
3626.00,99.99
3625.00,99.99
3624.00,100.00
3623.00,100.00
3622.00,100.01
3621.00,100.03
3620.00,100.03
3619.00,100.02
3618.00,100.01
3617.00,99.99
3616.00,99.98
3615.00,99.98
3614.00,99.99
3613.00,100.00
3612.00,99.99
3611.00,99.98
3610.00,99.97
3609.00,99.96
3608.00,99.97
3607.00,99.98
3606.00,99.99
3605.00,99.99
3604.00,99.98
3603.00,99.97
3602.00,99.96
3601.00,99.96
3600.00,99.96
3599.00,99.97
3598.00,99.98
3597.00,99.98
3596.00,99.98
3595.00,99.98
3594.00,99.98
3593.00,99.98
3592.00,99.98
3591.00,99.98
3590.00,99.98
3589.00,99.97
3588.00,99.98
3587.00,99.99
3586.00,100.00
3585.00,99.99
3584.00,99.99
3583.00,99.98
3582.00,99.97
3581.00,99.97
3580.00,99.97
3579.00,99.97
3578.00,99.98
3577.00,99.98
3576.00,99.97
3575.00,99.98
3574.00,99.98
3573.00,99.98
3572.00,99.98
3571.00,99.98
3570.00,99.98
3569.00,99.98
3568.00,99.97
3567.00,99.97
3566.00,99.96
3565.00,99.96
3564.00,99.97
3563.00,99.97
3562.00,99.98
3561.00,99.98
3560.00,99.98
3559.00,99.98
3558.00,99.97
3557.00,99.97
3556.00,99.97
3555.00,99.97
3554.00,99.97
3553.00,99.98
3552.00,99.98
3551.00,99.98
3550.00,99.98
3549.00,99.97
3548.00,99.97
3547.00,99.97
3546.00,99.97
3545.00,99.97
3544.00,99.98
3543.00,99.98
3542.00,99.99
3541.00,99.99
3540.00,100.00
3539.00,100.00
3538.00,100.00
3537.00,100.00
3536.00,100.00
3535.00,100.00
3534.00,100.00
3533.00,99.99
3532.00,99.99
3531.00,99.99
3530.00,99.98
3529.00,99.98
3528.00,99.98
3527.00,99.98
3526.00,99.98
3525.00,99.98
3524.00,99.97
3523.00,99.97
3522.00,99.98
3521.00,99.98
3520.00,99.99
3519.00,99.98
3518.00,99.98
3517.00,99.98
3516.00,99.98
3515.00,99.98
3514.00,99.98
3513.00,99.98
3512.00,99.98
3511.00,99.98
3510.00,99.98
3509.00,99.98
3508.00,99.98
3507.00,99.98
3506.00,99.97
3505.00,99.97
3504.00,99.96
3503.00,99.96
3502.00,99.97
3501.00,99.97
3500.00,99.97
3499.00,99.96
3498.00,99.96
3497.00,99.97
3496.00,99.98
3495.00,99.98
3494.00,99.99
3493.00,99.98
3492.00,99.98
3491.00,99.98
3490.00,99.98
3489.00,99.98
3488.00,99.98
3487.00,99.98
3486.00,99.99
3485.00,99.99
3484.00,99.99
3483.00,99.98
3482.00,99.99
3481.00,99.99
3480.00,99.99
3479.00,100.00
3478.00,99.99
3477.00,99.99
3476.00,99.99
3475.00,99.98
3474.00,99.98
3473.00,99.98
3472.00,99.98
3471.00,99.97
3470.00,99.97
3469.00,99.97
3468.00,99.98
3467.00,99.98
3466.00,99.98
3465.00,99.99
3464.00,99.99
3463.00,99.99
3462.00,99.99
3461.00,100.00
3460.00,100.00
3459.00,100.00
3458.00,100.00
3457.00,100.00
3456.00,100.00
3455.00,100.00
3454.00,99.99
3453.00,99.99
3452.00,99.99
3451.00,99.98
3450.00,99.98
3449.00,99.98
3448.00,99.98
3447.00,99.98
3446.00,99.98
3445.00,99.97
3444.00,99.97
3443.00,99.97
3442.00,99.98
3441.00,99.99
3440.00,99.99
3439.00,99.99
3438.00,99.99
3437.00,99.99
3436.00,99.98
3435.00,99.98
3434.00,99.98
3433.00,99.98
3432.00,99.98
3431.00,99.98
3430.00,99.98
3429.00,99.99
3428.00,100.00
3427.00,100.01
3426.00,100.01
3425.00,100.01
3424.00,100.01
3423.00,100.00
3422.00,99.99
3421.00,99.99
3420.00,99.98
3419.00,99.98
3418.00,99.99
3417.00,99.99
3416.00,100.00
3415.00,100.00
3414.00,100.00
3413.00,99.99
3412.00,99.99
3411.00,99.99
3410.00,99.99
3409.00,99.99
3408.00,99.98
3407.00,99.98
3406.00,99.98
3405.00,99.98
3404.00,99.98
3403.00,99.98
3402.00,99.98
3401.00,99.98
3400.00,99.98
3399.00,99.99
3398.00,99.99
3397.00,99.99
3396.00,99.99
3395.00,99.99
3394.00,100.00
3393.00,100.00
3392.00,100.00
3391.00,100.00
3390.00,100.00
3389.00,100.00
3388.00,100.00
3387.00,100.00
3386.00,100.00
3385.00,100.00
3384.00,99.99
3383.00,99.99
3382.00,99.99
3381.00,99.99
3380.00,99.99
3379.00,99.99
3378.00,99.99
3377.00,99.99
3376.00,99.99
3375.00,99.98
3374.00,99.97
3373.00,99.97
3372.00,99.97
3371.00,99.97
3370.00,99.97
3369.00,99.96
3368.00,99.96
3367.00,99.96
3366.00,99.97
3365.00,99.97
3364.00,99.97
3363.00,99.97
3362.00,99.97
3361.00,99.97
3360.00,99.98
3359.00,99.99
3358.00,99.99
3357.00,99.98
3356.00,99.98
3355.00,99.98
3354.00,99.99
3353.00,99.99
3352.00,99.99
3351.00,99.98
3350.00,99.97
3349.00,99.98
3348.00,99.98
3347.00,99.99
3346.00,100.00
3345.00,100.00
3344.00,99.99
3343.00,99.99
3342.00,99.98
3341.00,99.98
3340.00,99.98
3339.00,99.98
3338.00,99.98
3337.00,99.99
3336.00,99.99
3335.00,99.99
3334.00,99.99
3333.00,99.99
3332.00,99.98
3331.00,99.98
3330.00,99.98
3329.00,99.98
3328.00,99.98
3327.00,99.99
3326.00,99.99
3325.00,99.99
3324.00,99.99
3323.00,99.99
3322.00,99.99
3321.00,100.00
3320.00,100.00
3319.00,100.00
3318.00,99.99
3317.00,99.98
3316.00,99.97
3315.00,99.97
3314.00,99.97
3313.00,99.98
3312.00,99.99
3311.00,99.99
3310.00,99.99
3309.00,99.98
3308.00,99.97
3307.00,99.97
3306.00,99.98
3305.00,99.99
3304.00,99.99
3303.00,99.99
3302.00,99.99
3301.00,99.98
3300.00,99.98
3299.00,99.98
3298.00,99.98
3297.00,99.98
3296.00,99.98
3295.00,99.98
3294.00,99.98
3293.00,99.99
3292.00,99.99
3291.00,100.00
3290.00,100.00
3289.00,100.00
3288.00,100.00
3287.00,100.00
3286.00,99.99
3285.00,99.99
3284.00,99.99
3283.00,99.99
3282.00,99.99
3281.00,99.99
3280.00,99.99
3279.00,99.99
3278.00,99.98
3277.00,99.98
3276.00,99.98
3275.00,99.98
3274.00,99.99
3273.00,99.99
3272.00,99.99
3271.00,100.00
3270.00,100.00
3269.00,100.00
3268.00,100.00
3267.00,100.00
3266.00,100.00
3265.00,100.00
3264.00,100.00
3263.00,100.00
3262.00,99.99
3261.00,99.99
3260.00,99.98
3259.00,99.99
3258.00,99.99
3257.00,99.99
3256.00,99.99
3255.00,99.98
3254.00,99.98
3253.00,99.98
3252.00,99.98
3251.00,99.98
3250.00,99.97
3249.00,99.98
3248.00,99.98
3247.00,99.98
3246.00,99.97
3245.00,99.97
3244.00,99.97
3243.00,99.97
3242.00,99.97
3241.00,99.97
3240.00,99.98
3239.00,99.98
3238.00,99.99
3237.00,99.99
3236.00,99.99
3235.00,99.99
3234.00,99.98
3233.00,99.98
3232.00,99.98
3231.00,99.98
3230.00,99.98
3229.00,99.99
3228.00,100.00
3227.00,100.00
3226.00,100.00
3225.00,100.00
3224.00,99.99
3223.00,99.99
3222.00,99.98
3221.00,99.97
3220.00,99.97
3219.00,99.97
3218.00,99.97
3217.00,99.98
3216.00,99.99
3215.00,99.99
3214.00,99.99
3213.00,99.99
3212.00,99.99
3211.00,99.99
3210.00,99.99
3209.00,99.99
3208.00,99.99
3207.00,99.99
3206.00,99.99
3205.00,99.99
3204.00,99.99
3203.00,99.99
3202.00,99.99
3201.00,99.99
3200.00,99.99
3199.00,99.99
3198.00,99.99
3197.00,99.99
3196.00,99.99
3195.00,99.99
3194.00,99.99
3193.00,99.98
3192.00,99.99
3191.00,99.99
3190.00,99.98
3189.00,99.98
3188.00,99.98
3187.00,99.97
3186.00,99.97
3185.00,99.98
3184.00,99.98
3183.00,99.99
3182.00,99.99
3181.00,99.99
3180.00,99.99
3179.00,99.99
3178.00,99.99
3177.00,100.00
3176.00,100.00
3175.00,100.00
3174.00,100.00
3173.00,100.00
3172.00,100.00
3171.00,100.01
3170.00,100.00
3169.00,100.00
3168.00,100.00
3167.00,99.99
3166.00,99.99
3165.00,99.99
3164.00,99.99
3163.00,99.99
3162.00,99.99
3161.00,99.99
3160.00,99.99
3159.00,99.99
3158.00,99.99
3157.00,99.99
3156.00,99.99
3155.00,99.98
3154.00,99.98
3153.00,99.98
3152.00,99.99
3151.00,99.99
3150.00,99.99
3149.00,99.99
3148.00,99.98
3147.00,99.98
3146.00,99.98
3145.00,99.98
3144.00,99.98
3143.00,99.99
3142.00,99.99
3141.00,99.99
3140.00,99.99
3139.00,99.99
3138.00,99.99
3137.00,99.99
3136.00,99.99
3135.00,100.00
3134.00,100.00
3133.00,100.00
3132.00,100.00
3131.00,99.99
3130.00,99.99
3129.00,99.98
3128.00,99.98
3127.00,99.98
3126.00,99.99
3125.00,99.99
3124.00,99.99
3123.00,99.99
3122.00,99.99
3121.00,99.99
3120.00,99.99
3119.00,99.99
3118.00,99.99
3117.00,99.99
3116.00,99.99
3115.00,99.99
3114.00,99.99
3113.00,99.98
3112.00,99.98
3111.00,99.98
3110.00,99.98
3109.00,99.98
3108.00,99.98
3107.00,99.99
3106.00,99.99
3105.00,99.98
3104.00,99.98
3103.00,99.99
3102.00,100.00
3101.00,100.00
3100.00,100.00
3099.00,100.00
3098.00,99.99
3097.00,99.99
3096.00,99.98
3095.00,99.99
3094.00,99.99
3093.00,99.99
3092.00,99.99
3091.00,99.99
3090.00,99.99
3089.00,99.99
3088.00,100.00
3087.00,100.00
3086.00,100.00
3085.00,100.00
3084.00,100.00
3083.00,100.00
3082.00,99.99
3081.00,99.99
3080.00,99.99
3079.00,99.99
3078.00,99.98
3077.00,99.98
3076.00,99.98
3075.00,99.98
3074.00,99.99
3073.00,100.00
3072.00,100.00
3071.00,100.00
3070.00,99.99
3069.00,99.98
3068.00,99.98
3067.00,99.97
3066.00,99.97
3065.00,99.97
3064.00,99.97
3063.00,99.98
3062.00,99.99
3061.00,99.99
3060.00,100.00
3059.00,100.00
3058.00,100.00
3057.00,100.00
3056.00,99.99
3055.00,99.99
3054.00,99.99
3053.00,100.00
3052.00,100.00
3051.00,100.00
3050.00,99.99
3049.00,99.99
3048.00,99.99
3047.00,100.00
3046.00,100.00
3045.00,100.01
3044.00,100.01
3043.00,100.00
3042.00,100.00
3041.00,99.99
3040.00,99.98
3039.00,99.98
3038.00,99.98
3037.00,99.98
3036.00,99.98
3035.00,99.98
3034.00,99.99
3033.00,99.99
3032.00,99.99
3031.00,99.99
3030.00,99.99
3029.00,99.99
3028.00,99.98
3027.00,99.98
3026.00,99.98
3025.00,99.98
3024.00,99.98
3023.00,99.99
3022.00,99.99
3021.00,99.99
3020.00,99.98
3019.00,99.98
3018.00,99.98
3017.00,99.98
3016.00,99.98
3015.00,99.98
3014.00,99.98
3013.00,99.97
3012.00,99.97
3011.00,99.97
3010.00,99.97
3009.00,99.98
3008.00,99.99
3007.00,99.99
3006.00,100.00
3005.00,100.00
3004.00,100.00
3003.00,99.99
3002.00,99.99
3001.00,100.00
3000.00,100.00
2999.00,100.00
2998.00,100.00
2997.00,99.99
2996.00,99.99
2995.00,99.99
2994.00,99.99
2993.00,99.99
2992.00,100.00
2991.00,100.00
2990.00,100.00
2989.00,100.00
2988.00,100.00
2987.00,100.00
2986.00,99.99
2985.00,99.99
2984.00,99.99
2983.00,99.99
2982.00,99.99
2981.00,99.99
2980.00,99.99
2979.00,99.99
2978.00,99.99
2977.00,99.99
2976.00,100.00
2975.00,100.01
2974.00,100.01
2973.00,100.01
2972.00,100.00
2971.00,100.00
2970.00,100.00
2969.00,100.00
2968.00,100.00
2967.00,100.00
2966.00,100.00
2965.00,100.00
2964.00,99.99
2963.00,99.99
2962.00,99.99
2961.00,99.99
2960.00,99.98
2959.00,99.98
2958.00,99.98
2957.00,99.99
2956.00,99.99
2955.00,99.99
2954.00,99.99
2953.00,99.99
2952.00,99.99
2951.00,99.99
2950.00,100.00
2949.00,100.00
2948.00,99.99
2947.00,99.98
2946.00,99.98
2945.00,99.97
2944.00,99.97
2943.00,99.98
2942.00,99.98
2941.00,99.97
2940.00,99.98
2939.00,99.98
2938.00,99.99
2937.00,100.00
2936.00,100.01
2935.00,100.01
2934.00,100.01
2933.00,100.01
2932.00,100.00
2931.00,100.00
2930.00,100.00
2929.00,100.00
2928.00,100.00
2927.00,100.00
2926.00,100.00
2925.00,99.99
2924.00,99.99
2923.00,99.99
2922.00,100.00
2921.00,100.00
2920.00,100.00
2919.00,100.00
2918.00,99.99
2917.00,99.99
2916.00,99.99
2915.00,99.99
2914.00,99.99
2913.00,99.99
2912.00,100.00
2911.00,100.00
2910.00,100.01
2909.00,100.01
2908.00,100.00
2907.00,100.00
2906.00,100.00
2905.00,100.00
2904.00,100.00
2903.00,100.00
2902.00,100.00
2901.00,100.00
2900.00,100.00
2899.00,99.99
2898.00,99.99
2897.00,99.99
2896.00,99.99
2895.00,99.99
2894.00,99.99
2893.00,99.99
2892.00,99.99
2891.00,99.98
2890.00,99.98
2889.00,99.98
2888.00,99.99
2887.00,99.99
2886.00,99.99
2885.00,100.00
2884.00,100.00
2883.00,100.00
2882.00,100.00
2881.00,99.99
2880.00,99.99
2879.00,99.99
2878.00,99.99
2877.00,99.99
2876.00,99.99
2875.00,100.00
2874.00,100.01
2873.00,100.01
2872.00,100.01
2871.00,100.01
2870.00,100.01
2869.00,100.01
2868.00,100.00
2867.00,100.00
2866.00,100.00
2865.00,99.99
2864.00,99.99
2863.00,99.99
2862.00,100.00
2861.00,100.00
2860.00,100.00
2859.00,100.00
2858.00,100.00
2857.00,100.00
2856.00,100.01
2855.00,100.01
2854.00,100.00
2853.00,100.00
2852.00,100.00
2851.00,100.00
2850.00,100.00
2849.00,99.99
2848.00,99.99
2847.00,99.98
2846.00,99.98
2845.00,99.98
2844.00,99.98
2843.00,99.99
2842.00,99.99
2841.00,100.00
2840.00,100.00
2839.00,100.00
2838.00,100.00
2837.00,100.00
2836.00,100.00
2835.00,100.00
2834.00,100.00
2833.00,100.00
2832.00,100.00
2831.00,100.00
2830.00,100.00
2829.00,100.00
2828.00,100.00
2827.00,99.99
2826.00,99.99
2825.00,99.99
2824.00,100.00
2823.00,100.00
2822.00,100.00
2821.00,99.99
2820.00,99.99
2819.00,99.99
2818.00,99.99
2817.00,100.00
2816.00,100.00
2815.00,100.00
2814.00,99.99
2813.00,99.99
2812.00,99.99
2811.00,99.99
2810.00,100.00
2809.00,100.00
2808.00,99.99
2807.00,99.99
2806.00,99.99
2805.00,99.98
2804.00,99.99
2803.00,99.99
2802.00,99.99
2801.00,99.99
2800.00,99.99
2799.00,100.00
2798.00,100.00
2797.00,100.00
2796.00,100.01
2795.00,100.01
2794.00,100.01
2793.00,100.01
2792.00,100.00
2791.00,100.00
2790.00,99.99
2789.00,99.99
2788.00,99.99
2787.00,99.99
2786.00,99.99
2785.00,99.99
2784.00,100.00
2783.00,100.00
2782.00,100.00
2781.00,100.00
2780.00,100.00
2779.00,100.00
2778.00,100.00
2777.00,100.00
2776.00,100.00
2775.00,100.00
2774.00,100.00
2773.00,100.00
2772.00,100.00
2771.00,100.00
2770.00,100.00
2769.00,100.00
2768.00,100.00
2767.00,100.00
2766.00,100.00
2765.00,100.00
2764.00,100.00
2763.00,100.00
2762.00,99.99
2761.00,99.99
2760.00,99.99
2759.00,99.99
2758.00,99.99
2757.00,99.99
2756.00,99.99
2755.00,99.99
2754.00,99.99
2753.00,99.99
2752.00,99.99
2751.00,99.99
2750.00,99.99
2749.00,99.99
2748.00,99.99
2747.00,100.00
2746.00,100.00
2745.00,100.00
2744.00,100.00
2743.00,100.00
2742.00,100.00
2741.00,100.01
2740.00,100.01
2739.00,100.00
2738.00,100.00
2737.00,99.99
2736.00,99.99
2735.00,99.99
2734.00,99.99
2733.00,99.99
2732.00,99.99
2731.00,99.99
2730.00,99.99
2729.00,99.99
2728.00,100.00
2727.00,100.00
2726.00,100.00
2725.00,99.99
2724.00,99.99
2723.00,99.98
2722.00,99.99
2721.00,99.99
2720.00,100.00
2719.00,100.00
2718.00,100.00
2717.00,100.00
2716.00,100.00
2715.00,99.99
2714.00,99.99
2713.00,99.99
2712.00,99.99
2711.00,99.99
2710.00,99.99
2709.00,99.99
2708.00,99.99
2707.00,99.99
2706.00,100.00
2705.00,100.00
2704.00,100.00
2703.00,100.00
2702.00,100.00
2701.00,100.01
2700.00,100.01
2699.00,100.01
2698.00,100.01
2697.00,100.00
2696.00,100.00
2695.00,100.00
2694.00,100.00
2693.00,100.00
2692.00,100.00
2691.00,100.00
2690.00,100.00
2689.00,100.00
2688.00,99.99
2687.00,99.98
2686.00,99.98
2685.00,99.98
2684.00,99.99
2683.00,99.99
2682.00,99.99
2681.00,99.98
2680.00,99.98
2679.00,99.98
2678.00,99.99
2677.00,99.99
2676.00,100.00
2675.00,100.00
2674.00,100.00
2673.00,100.00
2672.00,100.00
2671.00,100.00
2670.00,100.00
2669.00,100.00
2668.00,100.00
2667.00,100.00
2666.00,100.00
2665.00,100.00
2664.00,100.00
2663.00,100.00
2662.00,100.00
2661.00,100.00
2660.00,100.00
2659.00,100.00
2658.00,100.00
2657.00,100.00
2656.00,100.01
2655.00,100.01
2654.00,100.01
2653.00,100.01
2652.00,100.01
2651.00,100.00
2650.00,100.00
2649.00,100.00
2648.00,100.00
2647.00,99.99
2646.00,99.99
2645.00,99.99
2644.00,99.99
2643.00,99.98
2642.00,99.98
2641.00,99.98
2640.00,99.99
2639.00,99.99
2638.00,99.99
2637.00,100.00
2636.00,100.00
2635.00,100.00
2634.00,100.00
2633.00,100.00
2632.00,100.00
2631.00,99.99
2630.00,99.99
2629.00,99.98
2628.00,99.98
2627.00,99.98
2626.00,100.00
2625.00,100.01
2624.00,100.01
2623.00,100.01
2622.00,100.00
2621.00,100.00
2620.00,100.00
2619.00,100.00
2618.00,100.00
2617.00,99.99
2616.00,99.99
2615.00,99.99
2614.00,99.99
2613.00,99.99
2612.00,99.99
2611.00,99.99
2610.00,99.98
2609.00,99.98
2608.00,99.98
2607.00,99.98
2606.00,99.99
2605.00,99.99
2604.00,99.99
2603.00,99.99
2602.00,99.99
2601.00,100.00
2600.00,100.00
2599.00,100.00
2598.00,100.00
2597.00,100.00
2596.00,99.99
2595.00,99.99
2594.00,99.99
2593.00,99.99
2592.00,99.99
2591.00,99.99
2590.00,99.99
2589.00,99.99
2588.00,99.99
2587.00,99.99
2586.00,99.99
2585.00,99.99
2584.00,99.99
2583.00,100.00
2582.00,100.00
2581.00,100.00
2580.00,100.00
2579.00,100.00
2578.00,100.00
2577.00,100.00
2576.00,100.00
2575.00,100.00
2574.00,100.00
2573.00,100.00
2572.00,100.00
2571.00,99.99
2570.00,99.99
2569.00,99.99
2568.00,99.99
2567.00,99.99
2566.00,100.00
2565.00,100.00
2564.00,100.00
2563.00,99.99
2562.00,99.99
2561.00,100.00
2560.00,100.00
2559.00,99.99
2558.00,99.99
2557.00,100.00
2556.00,100.00
2555.00,100.00
2554.00,100.00
2553.00,100.00
2552.00,100.00
2551.00,100.00
2550.00,100.00
2549.00,99.99
2548.00,99.99
2547.00,99.99
2546.00,99.99
2545.00,99.99
2544.00,99.99
2543.00,99.99
2542.00,99.99
2541.00,100.00
2540.00,100.00
2539.00,100.00
2538.00,100.00
2537.00,100.00
2536.00,100.00
2535.00,100.01
2534.00,100.01
2533.00,100.00
2532.00,100.00
2531.00,100.00
2530.00,100.00
2529.00,100.00
2528.00,100.00
2527.00,100.00
2526.00,100.00
2525.00,100.00
2524.00,100.00
2523.00,100.00
2522.00,100.00
2521.00,100.00
2520.00,100.00
2519.00,100.00
2518.00,100.00
2517.00,100.00
2516.00,100.00
2515.00,99.99
2514.00,99.99
2513.00,99.99
2512.00,99.99
2511.00,100.00
2510.00,100.00
2509.00,100.01
2508.00,100.01
2507.00,100.01
2506.00,100.01
2505.00,100.01
2504.00,100.01
2503.00,100.01
2502.00,100.00
2501.00,100.00
2500.00,100.01
2499.00,100.01
2498.00,100.01
2497.00,100.01
2496.00,100.00
2495.00,100.00
2494.00,100.00
2493.00,100.00
2492.00,100.00
2491.00,100.00
2490.00,100.00
2489.00,100.00
2488.00,100.00
2487.00,100.00
2486.00,100.01
2485.00,100.00
2484.00,100.00
2483.00,100.00
2482.00,100.00
2481.00,100.01
2480.00,100.01
2479.00,100.01
2478.00,100.00
2477.00,100.00
2476.00,100.00
2475.00,100.00
2474.00,100.00
2473.00,99.99
2472.00,99.99
2471.00,100.00
2470.00,100.00
2469.00,100.01
2468.00,100.01
2467.00,100.01
2466.00,100.01
2465.00,100.01
2464.00,100.01
2463.00,100.00
2462.00,99.99
2461.00,99.99
2460.00,100.00
2459.00,100.00
2458.00,99.99
2457.00,99.99
2456.00,99.99
2455.00,99.99
2454.00,100.00
2453.00,100.00
2452.00,100.00
2451.00,100.00
2450.00,100.00
2449.00,100.00
2448.00,100.00
2447.00,100.00
2446.00,100.00
2445.00,99.99
2444.00,99.99
2443.00,100.00
2442.00,100.00
2441.00,100.00
2440.00,100.00
2439.00,100.00
2438.00,100.00
2437.00,100.00
2436.00,100.01
2435.00,100.01
2434.00,100.01
2433.00,100.01
2432.00,100.00
2431.00,100.00
2430.00,100.00
2429.00,100.00
2428.00,100.00
2427.00,100.01
2426.00,100.02
2425.00,100.02
2424.00,100.01
2423.00,100.01
2422.00,100.00
2421.00,99.99
2420.00,99.99
2419.00,99.99
2418.00,99.99
2417.00,99.99
2416.00,99.99
2415.00,99.99
2414.00,99.99
2413.00,100.00
2412.00,100.00
2411.00,100.00
2410.00,100.00
2409.00,100.00
2408.00,100.00
2407.00,100.00
2406.00,100.00
2405.00,100.00
2404.00,99.99
2403.00,100.00
2402.00,100.00
2401.00,100.00
2400.00,100.00
2399.00,100.00
2398.00,100.00
2397.00,100.00
2396.00,100.00
2395.00,100.00
2394.00,100.00
2393.00,99.99
2392.00,99.98
2391.00,99.98
2390.00,99.98
2389.00,99.98
2388.00,99.99
2387.00,100.00
2386.00,100.00
2385.00,99.99
2384.00,99.98
2383.00,99.98
2382.00,99.97
2381.00,99.97
2380.00,99.97
2379.00,99.97
2378.00,99.97
2377.00,99.97
2376.00,99.96
2375.00,99.96
2374.00,99.97
2373.00,99.97
2372.00,99.97
2371.00,99.96
2370.00,99.96
2369.00,99.96
2368.00,99.96
2367.00,99.96
2366.00,99.95
2365.00,99.95
2364.00,99.95
2363.00,99.95
2362.00,99.95
2361.00,99.95
2360.00,99.94
2359.00,99.94
2358.00,99.93
2357.00,99.93
2356.00,99.94
2355.00,99.94
2354.00,99.95
2353.00,99.95
2352.00,99.94
2351.00,99.94
2350.00,99.94
2349.00,99.94
2348.00,99.95
2347.00,99.95
2346.00,99.95
2345.00,99.93
2344.00,99.92
2343.00,99.92
2342.00,99.92
2341.00,99.93
2340.00,99.94
2339.00,99.94
2338.00,99.94
2337.00,99.94
2336.00,99.94
2335.00,99.93
2334.00,99.93
2333.00,99.93
2332.00,99.93
2331.00,99.93
2330.00,99.93
2329.00,99.93
2328.00,99.93
2327.00,99.93
2326.00,99.93
2325.00,99.93
2324.00,99.93
2323.00,99.94
2322.00,99.94
2321.00,99.95
2320.00,99.95
2319.00,99.96
2318.00,99.96
2317.00,99.96
2316.00,99.96
2315.00,99.97
2314.00,99.98
2313.00,99.98
2312.00,99.98
2311.00,99.97
2310.00,99.97
2309.00,99.98
2308.00,99.98
2307.00,99.98
2306.00,99.98
2305.00,99.98
2304.00,99.98
2303.00,99.97
2302.00,99.97
2301.00,99.97
2300.00,99.97
2299.00,99.98
2298.00,99.98
2297.00,99.99
2296.00,99.99
2295.00,99.99
2294.00,99.99
2293.00,99.98
2292.00,99.99
2291.00,99.99
2290.00,99.99
2289.00,99.99
2288.00,99.99
2287.00,99.99
2286.00,99.99
2285.00,99.99
2284.00,100.00
2283.00,100.00
2282.00,100.01
2281.00,100.01
2280.00,100.01
2279.00,100.01
2278.00,100.01
2277.00,100.00
2276.00,100.00
2275.00,100.00
2274.00,100.00
2273.00,100.00
2272.00,100.00
2271.00,100.00
2270.00,100.00
2269.00,100.00
2268.00,99.99
2267.00,99.98
2266.00,99.99
2265.00,99.99
2264.00,99.99
2263.00,99.99
2262.00,99.99
2261.00,99.99
2260.00,99.99
2259.00,99.99
2258.00,100.00
2257.00,100.00
2256.00,100.00
2255.00,100.00
2254.00,100.00
2253.00,100.00
2252.00,100.00
2251.00,100.00
2250.00,100.00
2249.00,100.00
2248.00,100.00
2247.00,100.00
2246.00,100.00
2245.00,100.00
2244.00,100.00
2243.00,100.00
2242.00,100.00
2241.00,100.00
2240.00,100.00
2239.00,100.00
2238.00,100.00
2237.00,99.99
2236.00,99.99
2235.00,99.99
2234.00,99.99
2233.00,100.00
2232.00,100.00
2231.00,100.00
2230.00,100.00
2229.00,100.00
2228.00,100.00
2227.00,99.99
2226.00,99.99
2225.00,99.99
2224.00,99.99
2223.00,100.00
2222.00,100.00
2221.00,100.00
2220.00,100.00
2219.00,100.00
2218.00,100.00
2217.00,100.01
2216.00,100.01
2215.00,100.01
2214.00,100.01
2213.00,100.01
2212.00,100.01
2211.00,100.00
2210.00,100.00
2209.00,100.00
2208.00,99.99
2207.00,99.99
2206.00,99.99
2205.00,100.00
2204.00,100.00
2203.00,100.00
2202.00,100.00
2201.00,100.00
2200.00,100.00
2199.00,100.00
2198.00,100.00
2197.00,100.00
2196.00,100.01
2195.00,100.01
2194.00,100.01
2193.00,100.00
2192.00,100.00
2191.00,100.00
2190.00,99.99
2189.00,100.00
2188.00,100.00
2187.00,100.01
2186.00,100.01
2185.00,100.00
2184.00,100.00
2183.00,100.00
2182.00,100.01
2181.00,100.01
2180.00,100.01
2179.00,100.00
2178.00,100.00
2177.00,100.00
2176.00,100.00
2175.00,100.01
2174.00,100.01
2173.00,100.01
2172.00,100.01
2171.00,100.01
2170.00,100.01
2169.00,100.01
2168.00,100.01
2167.00,100.00
2166.00,100.00
2165.00,100.00
2164.00,100.01
2163.00,100.01
2162.00,100.01
2161.00,100.01
2160.00,100.01
2159.00,100.00
2158.00,99.99
2157.00,99.99
2156.00,99.99
2155.00,100.00
2154.00,100.00
2153.00,100.00
2152.00,100.00
2151.00,100.00
2150.00,100.00
2149.00,100.00
2148.00,100.00
2147.00,100.00
2146.00,100.00
2145.00,100.01
2144.00,100.01
2143.00,100.01
2142.00,100.00
2141.00,100.00
2140.00,99.99
2139.00,99.99
2138.00,99.99
2137.00,99.99
2136.00,100.00
2135.00,100.00
2134.00,99.99
2133.00,99.99
2132.00,99.99
2131.00,99.99
2130.00,99.99
2129.00,100.00
2128.00,100.00
2127.00,100.00
2126.00,100.01
2125.00,100.01
2124.00,100.01
2123.00,100.00
2122.00,100.00
2121.00,100.00
2120.00,100.01
2119.00,100.01
2118.00,100.01
2117.00,100.00
2116.00,100.00
2115.00,99.99
2114.00,99.99
2113.00,99.99
2112.00,99.99
2111.00,100.00
2110.00,100.00
2109.00,100.00
2108.00,100.01
2107.00,100.01
2106.00,100.01
2105.00,100.01
2104.00,100.01
2103.00,100.00
2102.00,100.00
2101.00,100.00
2100.00,100.00
2099.00,100.00
2098.00,100.00
2097.00,100.00
2096.00,100.00
2095.00,99.99
2094.00,99.99
2093.00,100.00
2092.00,100.00
2091.00,100.00
2090.00,100.00
2089.00,99.99
2088.00,99.99
2087.00,99.99
2086.00,99.99
2085.00,99.99
2084.00,99.99
2083.00,99.99
2082.00,99.99
2081.00,100.00
2080.00,100.00
2079.00,100.00
2078.00,100.00
2077.00,100.00
2076.00,100.00
2075.00,100.01
2074.00,100.01
2073.00,100.00
2072.00,100.00
2071.00,100.00
2070.00,99.99
2069.00,100.00
2068.00,100.00
2067.00,100.01
2066.00,100.01
2065.00,100.01
2064.00,100.00
2063.00,100.00
2062.00,100.00
2061.00,100.00
2060.00,100.00
2059.00,100.00
2058.00,100.00
2057.00,100.00
2056.00,99.99
2055.00,99.99
2054.00,100.00
2053.00,100.00
2052.00,100.00
2051.00,100.00
2050.00,100.00
2049.00,100.01
2048.00,100.00
2047.00,100.00
2046.00,100.00
2045.00,99.99
2044.00,99.99
2043.00,99.98
2042.00,99.98
2041.00,99.98
2040.00,99.98
2039.00,99.99
2038.00,99.99
2037.00,100.00
2036.00,100.00
2035.00,100.00
2034.00,99.99
2033.00,99.99
2032.00,99.99
2031.00,99.99
2030.00,99.99
2029.00,99.99
2028.00,100.00
2027.00,100.00
2026.00,100.00
2025.00,100.00
2024.00,99.99
2023.00,100.00
2022.00,100.00
2021.00,100.00
2020.00,100.00
2019.00,100.00
2018.00,100.00
2017.00,100.00
2016.00,100.00
2015.00,100.00
2014.00,100.00
2013.00,100.00
2012.00,100.00
2011.00,100.01
2010.00,100.00
2009.00,100.00
2008.00,100.00
2007.00,100.00
2006.00,99.99
2005.00,99.99
2004.00,99.99
2003.00,100.00
2002.00,100.00
2001.00,100.00
2000.00,99.99
1999.00,99.99
1998.00,99.99
1997.00,99.99
1996.00,99.99
1995.00,100.00
1994.00,100.00
1993.00,100.00
1992.00,100.00
1991.00,100.00
1990.00,100.00
1989.00,100.00
1988.00,100.00
1987.00,99.99
1986.00,100.00
1985.00,100.00
1984.00,100.00
1983.00,100.01
1982.00,100.01
1981.00,100.01
1980.00,100.01
1979.00,100.01
1978.00,100.01
1977.00,100.00
1976.00,100.00
1975.00,100.00
1974.00,100.00
1973.00,100.00
1972.00,100.00
1971.00,100.00
1970.00,100.00
1969.00,100.00
1968.00,100.00
1967.00,100.00
1966.00,99.99
1965.00,99.99
1964.00,99.99
1963.00,99.99
1962.00,100.00
1961.00,100.00
1960.00,100.01
1959.00,100.01
1958.00,100.01
1957.00,100.00
1956.00,100.00
1955.00,99.99
1954.00,99.99
1953.00,100.00
1952.00,100.00
1951.00,100.00
1950.00,100.00
1949.00,100.01
1948.00,100.01
1947.00,100.00
1946.00,100.00
1945.00,100.00
1944.00,100.00
1943.00,100.00
1942.00,100.00
1941.00,100.00
1940.00,100.00
1939.00,100.00
1938.00,100.00
1937.00,100.00
1936.00,100.00
1935.00,100.00
1934.00,100.00
1933.00,100.01
1932.00,100.01
1931.00,100.01
1930.00,100.01
1929.00,100.01
1928.00,100.01
1927.00,100.01
1926.00,100.01
1925.00,100.00
1924.00,99.99
1923.00,99.99
1922.00,100.00
1921.00,100.00
1920.00,100.01
1919.00,100.01
1918.00,100.00
1917.00,100.00
1916.00,99.99
1915.00,99.99
1914.00,99.99
1913.00,99.99
1912.00,99.99
1911.00,99.99
1910.00,99.99
1909.00,100.00
1908.00,100.00
1907.00,100.00
1906.00,100.00
1905.00,100.00
1904.00,100.00
1903.00,100.00
1902.00,99.99
1901.00,99.99
1900.00,100.00
1899.00,100.00
1898.00,100.00
1897.00,100.00
1896.00,100.00
1895.00,100.00
1894.00,100.00
1893.00,100.00
1892.00,100.00
1891.00,100.00
1890.00,100.00
1889.00,100.00
1888.00,100.00
1887.00,99.99
1886.00,99.99
1885.00,99.99
1884.00,100.00
1883.00,100.00
1882.00,100.00
1881.00,100.00
1880.00,100.00
1879.00,99.99
1878.00,99.99
1877.00,99.99
1876.00,100.00
1875.00,100.00
1874.00,100.00
1873.00,100.01
1872.00,100.01
1871.00,100.01
1870.00,100.00
1869.00,99.99
1868.00,99.98
1867.00,99.98
1866.00,99.98
1865.00,99.99
1864.00,100.00
1863.00,100.00
1862.00,100.00
1861.00,100.01
1860.00,100.01
1859.00,100.01
1858.00,100.00
1857.00,100.00
1856.00,100.01
1855.00,100.01
1854.00,100.01
1853.00,100.01
1852.00,100.00
1851.00,99.99
1850.00,99.99
1849.00,99.99
1848.00,99.99
1847.00,99.99
1846.00,99.99
1845.00,99.99
1844.00,99.99
1843.00,100.00
1842.00,100.00
1841.00,100.00
1840.00,100.00
1839.00,99.99
1838.00,99.99
1837.00,100.00
1836.00,100.00
1835.00,100.01
1834.00,100.01
1833.00,100.01
1832.00,100.00
1831.00,100.00
1830.00,100.00
1829.00,100.00
1828.00,100.01
1827.00,100.01
1826.00,100.00
1825.00,99.99
1824.00,99.99
1823.00,100.00
1822.00,100.00
1821.00,100.00
1820.00,100.00
1819.00,100.01
1818.00,100.01
1817.00,100.02
1816.00,100.02
1815.00,100.02
1814.00,100.02
1813.00,100.01
1812.00,100.01
1811.00,100.00
1810.00,99.99
1809.00,99.99
1808.00,99.99
1807.00,100.00
1806.00,100.00
1805.00,100.01
1804.00,100.01
1803.00,100.01
1802.00,100.01
1801.00,100.00
1800.00,100.00
1799.00,100.00
1798.00,100.00
1797.00,99.99
1796.00,99.99
1795.00,99.99
1794.00,100.00
1793.00,100.01
1792.00,100.01
1791.00,100.01
1790.00,100.00
1789.00,100.00
1788.00,100.00
1787.00,100.00
1786.00,100.00
1785.00,100.01
1784.00,100.00
1783.00,100.00
1782.00,99.99
1781.00,99.98
1780.00,99.99
1779.00,99.99
1778.00,99.99
1777.00,99.99
1776.00,99.99
1775.00,99.98
1774.00,99.98
1773.00,99.98
1772.00,99.98
1771.00,99.99
1770.00,100.01
1769.00,100.03
1768.00,100.03
1767.00,100.03
1766.00,100.02
1765.00,100.02
1764.00,100.02
1763.00,100.03
1762.00,100.03
1761.00,100.02
1760.00,100.02
1759.00,100.02
1758.00,100.02
1757.00,100.02
1756.00,100.01
1755.00,100.01
1754.00,100.00
1753.00,99.99
1752.00,99.99
1751.00,99.99
1750.00,99.98
1749.00,99.97
1748.00,99.97
1747.00,99.97
1746.00,99.98
1745.00,99.98
1744.00,99.98
1743.00,99.99
1742.00,100.00
1741.00,100.00
1740.00,99.99
1739.00,99.99
1738.00,99.99
1737.00,99.97
1736.00,99.96
1735.00,99.96
1734.00,99.97
1733.00,99.96
1732.00,99.97
1731.00,99.98
1730.00,99.99
1729.00,100.00
1728.00,100.00
1727.00,100.00
1726.00,99.99
1725.00,99.98
1724.00,99.98
1723.00,99.98
1722.00,99.99
1721.00,99.99
1720.00,100.00
1719.00,100.02
1718.00,100.02
1717.00,100.03
1716.00,100.03
1715.00,100.03
1714.00,100.02
1713.00,100.01
1712.00,100.01
1711.00,100.00
1710.00,99.98
1709.00,99.98
1708.00,99.98
1707.00,99.97
1706.00,99.98
1705.00,99.99
1704.00,100.00
1703.00,99.99
1702.00,99.98
1701.00,99.99
1700.00,100.00
1699.00,100.00
1698.00,100.00
1697.00,100.00
1696.00,100.00
1695.00,99.99
1694.00,100.00
1693.00,100.01
1692.00,100.01
1691.00,100.00
1690.00,99.99
1689.00,99.99
1688.00,99.99
1687.00,100.00
1686.00,100.03
1685.00,100.06
1684.00,100.06
1683.00,100.03
1682.00,100.01
1681.00,100.00
1680.00,99.99
1679.00,99.99
1678.00,99.99
1677.00,99.99
1676.00,99.98
1675.00,99.98
1674.00,99.98
1673.00,99.98
1672.00,99.98
1671.00,99.98
1670.00,99.98
1669.00,99.99
1668.00,100.00
1667.00,100.00
1666.00,100.01
1665.00,100.00
1664.00,99.99
1663.00,99.99
1662.00,99.99
1661.00,100.00
1660.00,100.00
1659.00,100.01
1658.00,100.01
1657.00,100.00
1656.00,99.99
1655.00,99.99
1654.00,100.02
1653.00,100.01
1652.00,99.97
1651.00,99.98
1650.00,100.00
1649.00,100.00
1648.00,99.99
1647.00,100.00
1646.00,100.00
1645.00,100.00
1644.00,99.99
1643.00,99.99
1642.00,99.99
1641.00,99.98
1640.00,99.98
1639.00,99.98
1638.00,99.96
1637.00,99.96
1636.00,99.96
1635.00,99.97
1634.00,99.98
1633.00,100.00
1632.00,100.00
1631.00,100.00
1630.00,99.99
1629.00,99.98
1628.00,99.99
1627.00,99.99
1626.00,100.00
1625.00,99.99
1624.00,99.98
1623.00,99.98
1622.00,99.98
1621.00,99.99
1620.00,99.99
1619.00,99.98
1618.00,99.97
1617.00,99.97
1616.00,99.96
1615.00,99.97
1614.00,99.99
1613.00,99.99
1612.00,99.98
1611.00,99.97
1610.00,99.97
1609.00,99.97
1608.00,99.97
1607.00,99.97
1606.00,99.98
1605.00,99.99
1604.00,99.99
1603.00,99.99
1602.00,100.00
1601.00,100.00
1600.00,100.00
1599.00,100.00
1598.00,100.00
1597.00,100.01
1596.00,100.00
1595.00,100.00
1594.00,100.00
1593.00,100.01
1592.00,100.01
1591.00,100.00
1590.00,100.00
1589.00,100.00
1588.00,100.00
1587.00,99.99
1586.00,100.00
1585.00,100.01
1584.00,100.01
1583.00,100.01
1582.00,100.01
1581.00,100.01
1580.00,100.00
1579.00,99.98
1578.00,99.96
1577.00,99.96
1576.00,99.97
1575.00,99.98
1574.00,100.00
1573.00,100.01
1572.00,100.01
1571.00,99.99
1570.00,99.99
1569.00,99.99
1568.00,99.98
1567.00,99.98
1566.00,99.98
1565.00,99.98
1564.00,99.98
1563.00,99.99
1562.00,100.00
1561.00,100.05
1560.00,100.09
1559.00,100.07
1558.00,100.03
1557.00,100.01
1556.00,100.02
1555.00,100.03
1554.00,100.03
1553.00,100.02
1552.00,100.01
1551.00,100.00
1550.00,100.00
1549.00,100.01
1548.00,100.01
1547.00,100.02
1546.00,100.02
1545.00,100.01
1544.00,99.98
1543.00,99.97
1542.00,99.98
1541.00,100.01
1540.00,100.02
1539.00,100.01
1538.00,100.00
1537.00,100.00
1536.00,100.01
1535.00,100.00
1534.00,99.99
1533.00,99.99
1532.00,100.00
1531.00,100.00
1530.00,100.00
1529.00,100.01
1528.00,100.02
1527.00,100.03
1526.00,100.04
1525.00,100.03
1524.00,100.01
1523.00,99.99
1522.00,99.96
1521.00,99.96
1520.00,99.97
1519.00,99.99
1518.00,100.00
1517.00,100.00
1516.00,100.01
1515.00,100.02
1514.00,100.02
1513.00,100.02
1512.00,100.02
1511.00,100.02
1510.00,100.01
1509.00,100.02
1508.00,100.03
1507.00,100.06
1506.00,100.05
1505.00,100.01
1504.00,100.00
1503.00,100.00
1502.00,100.00
1501.00,99.99
1500.00,99.99
1499.00,100.00
1498.00,100.00
1497.00,100.00
1496.00,99.99
1495.00,99.98
1494.00,99.97
1493.00,99.97
1492.00,99.99
1491.00,100.00
1490.00,100.01
1489.00,100.01
1488.00,100.00
1487.00,100.00
1486.00,99.99
1485.00,99.99
1484.00,100.00
1483.00,99.99
1482.00,99.98
1481.00,99.98
1480.00,99.98
1479.00,99.98
1478.00,99.98
1477.00,100.00
1476.00,100.02
1475.00,100.03
1474.00,100.03
1473.00,100.02
1472.00,100.00
1471.00,100.00
1470.00,100.00
1469.00,100.01
1468.00,100.01
1467.00,100.00
1466.00,99.99
1465.00,99.99
1464.00,100.00
1463.00,100.01
1462.00,100.01
1461.00,100.00
1460.00,99.98
1459.00,99.96
1458.00,99.95
1457.00,99.95
1456.00,99.95
1455.00,99.96
1454.00,99.98
1453.00,99.99
1452.00,100.00
1451.00,100.00
1450.00,100.01
1449.00,100.01
1448.00,100.00
1447.00,100.00
1446.00,100.00
1445.00,99.99
1444.00,100.00
1443.00,100.00
1442.00,100.01
1441.00,100.00
1440.00,100.00
1439.00,99.99
1438.00,100.00
1437.00,100.00
1436.00,99.99
1435.00,100.00
1434.00,100.01
1433.00,100.01
1432.00,100.01
1431.00,100.00
1430.00,99.99
1429.00,99.99
1428.00,99.99
1427.00,100.00
1426.00,100.00
1425.00,100.00
1424.00,100.00
1423.00,100.00
1422.00,99.99
1421.00,99.98
1420.00,99.97
1419.00,99.98
1418.00,99.99
1417.00,100.00
1416.00,100.00
1415.00,99.99
1414.00,99.99
1413.00,99.99
1412.00,100.00
1411.00,100.01
1410.00,100.01
1409.00,100.01
1408.00,100.00
1407.00,100.00
1406.00,99.99
1405.00,99.99
1404.00,99.99
1403.00,99.99
1402.00,100.00
1401.00,100.00
1400.00,100.00
1399.00,99.99
1398.00,99.99
1397.00,99.99
1396.00,100.00
1395.00,100.01
1394.00,100.01
1393.00,100.01
1392.00,100.00
1391.00,100.00
1390.00,100.00
1389.00,100.00
1388.00,100.00
1387.00,100.00
1386.00,100.00
1385.00,100.00
1384.00,99.99
1383.00,99.99
1382.00,99.99
1381.00,99.99
1380.00,99.99
1379.00,99.99
1378.00,99.99
1377.00,99.98
1376.00,99.97
1375.00,99.98
1374.00,99.99
1373.00,100.00
1372.00,100.01
1371.00,100.01
1370.00,100.00
1369.00,100.00
1368.00,100.00
1367.00,100.01
1366.00,100.01
1365.00,100.01
1364.00,100.01
1363.00,100.01
1362.00,100.01
1361.00,100.02
1360.00,100.01
1359.00,100.01
1358.00,100.01
1357.00,100.00
1356.00,99.99
1355.00,99.99
1354.00,99.99
1353.00,99.99
1352.00,99.99
1351.00,99.98
1350.00,99.98
1349.00,99.98
1348.00,99.98
1347.00,99.99
1346.00,100.01
1345.00,100.02
1344.00,100.02
1343.00,100.01
1342.00,100.00
1341.00,99.99
1340.00,99.98
1339.00,99.98
1338.00,99.98
1337.00,99.99
1336.00,99.98
1335.00,99.98
1334.00,99.98
1333.00,99.98
1332.00,99.99
1331.00,99.99
1330.00,99.99
1329.00,99.99
1328.00,99.99
1327.00,99.99
1326.00,99.99
1325.00,99.99
1324.00,99.98
1323.00,99.98
1322.00,99.98
1321.00,99.97
1320.00,99.97
1319.00,99.97
1318.00,99.98
1317.00,99.99
1316.00,100.01
1315.00,100.01
1314.00,100.01
1313.00,100.00
1312.00,99.99
1311.00,99.99
1310.00,99.99
1309.00,100.00
1308.00,100.01
1307.00,100.00
1306.00,99.99
1305.00,99.99
1304.00,99.98
1303.00,99.99
1302.00,99.99
1301.00,99.99
1300.00,99.99
1299.00,99.98
1298.00,99.98
1297.00,99.98
1296.00,99.98
1295.00,99.98
1294.00,99.98
1293.00,99.98
1292.00,99.98
1291.00,99.99
1290.00,100.00
1289.00,100.00
1288.00,100.01
1287.00,100.01
1286.00,100.01
1285.00,100.00
1284.00,99.99
1283.00,99.99
1282.00,99.99
1281.00,100.00
1280.00,100.01
1279.00,100.01
1278.00,100.00
1277.00,99.98
1276.00,99.97
1275.00,99.97
1274.00,99.97
1273.00,99.98
1272.00,99.98
1271.00,99.98
1270.00,99.98
1269.00,99.98
1268.00,99.97
1267.00,99.98
1266.00,99.98
1265.00,99.99
1264.00,99.99
1263.00,99.99
1262.00,99.99
1261.00,99.98
1260.00,99.98
1259.00,99.98
1258.00,99.98
1257.00,99.98
1256.00,99.99
1255.00,99.99
1254.00,100.00
1253.00,100.00
1252.00,100.00
1251.00,100.00
1250.00,99.99
1249.00,99.99
1248.00,99.98
1247.00,99.98
1246.00,99.98
1245.00,99.97
1244.00,99.97
1243.00,99.96
1242.00,99.97
1241.00,99.98
1240.00,99.99
1239.00,100.00
1238.00,99.99
1237.00,99.99
1236.00,99.98
1235.00,99.98
1234.00,99.98
1233.00,99.98
1232.00,99.98
1231.00,99.97
1230.00,99.97
1229.00,99.97
1228.00,99.96
1227.00,99.96
1226.00,99.96
1225.00,99.97
1224.00,99.98
1223.00,99.99
1222.00,99.99
1221.00,99.98
1220.00,99.98
1219.00,99.99
1218.00,99.98
1217.00,99.98
1216.00,99.98
1215.00,99.98
1214.00,99.97
1213.00,99.96
1212.00,99.94
1211.00,99.94
1210.00,99.94
1209.00,99.95
1208.00,99.96
1207.00,99.97
1206.00,99.97
1205.00,99.97
1204.00,99.97
1203.00,99.96
1202.00,99.94
1201.00,99.93
1200.00,99.92
1199.00,99.92
1198.00,99.93
1197.00,99.94
1196.00,99.94
1195.00,99.95
1194.00,99.96
1193.00,99.98
1192.00,99.98
1191.00,99.98
1190.00,99.98
1189.00,99.98
1188.00,99.98
1187.00,99.98
1186.00,99.98
1185.00,99.98
1184.00,99.97
1183.00,99.97
1182.00,99.97
1181.00,99.96
1180.00,99.96
1179.00,99.96
1178.00,99.96
1177.00,99.95
1176.00,99.95
1175.00,99.96
1174.00,99.98
1173.00,99.98
1172.00,99.97
1171.00,99.96
1170.00,99.96
1169.00,99.96
1168.00,99.96
1167.00,99.95
1166.00,99.94
1165.00,99.94
1164.00,99.94
1163.00,99.93
1162.00,99.93
1161.00,99.93
1160.00,99.95
1159.00,99.97
1158.00,99.97
1157.00,99.96
1156.00,99.95
1155.00,99.93
1154.00,99.93
1153.00,99.93
1152.00,99.94
1151.00,99.94
1150.00,99.95
1149.00,99.95
1148.00,99.95
1147.00,99.95
1146.00,99.95
1145.00,99.95
1144.00,99.94
1143.00,99.93
1142.00,99.94
1141.00,99.95
1140.00,99.95
1139.00,99.95
1138.00,99.95
1137.00,99.95
1136.00,99.96
1135.00,99.96
1134.00,99.94
1133.00,99.92
1132.00,99.90
1131.00,99.91
1130.00,99.93
1129.00,99.96
1128.00,99.98
1127.00,100.00
1126.00,100.00
1125.00,99.98
1124.00,99.96
1123.00,99.94
1122.00,99.93
1121.00,99.95
1120.00,99.97
1119.00,99.99
1118.00,100.00
1117.00,100.00
1116.00,99.99
1115.00,99.98
1114.00,99.96
1113.00,99.94
1112.00,99.92
1111.00,99.90
1110.00,99.89
1109.00,99.88
1108.00,99.87
1107.00,99.88
1106.00,99.90
1105.00,99.91
1104.00,99.91
1103.00,99.90
1102.00,99.90
1101.00,99.90
1100.00,99.89
1099.00,99.88
1098.00,99.87
1097.00,99.86
1096.00,99.86
1095.00,99.87
1094.00,99.89
1093.00,99.92
1092.00,99.95
1091.00,99.96
1090.00,99.96
1089.00,99.94
1088.00,99.92
1087.00,99.93
1086.00,99.95
1085.00,99.96
1084.00,99.96
1083.00,99.94
1082.00,99.94
1081.00,99.95
1080.00,99.95
1079.00,99.94
1078.00,99.94
1077.00,99.95
1076.00,99.97
1075.00,99.99
1074.00,99.99
1073.00,99.97
1072.00,99.94
1071.00,99.90
1070.00,99.86
1069.00,99.81
1068.00,99.78
1067.00,99.76
1066.00,99.78
1065.00,99.81
1064.00,99.85
1063.00,99.87
1062.00,99.88
1061.00,99.89
1060.00,99.90
1059.00,99.90
1058.00,99.88
1057.00,99.85
1056.00,99.84
1055.00,99.86
1054.00,99.88
1053.00,99.89
1052.00,99.88
1051.00,99.86
1050.00,99.86
1049.00,99.86
1048.00,99.85
1047.00,99.85
1046.00,99.86
1045.00,99.89
1044.00,99.93
1043.00,99.95
1042.00,99.96
1041.00,99.95
1040.00,99.93
1039.00,99.92
1038.00,99.92
1037.00,99.95
1036.00,99.98
1035.00,99.99
1034.00,99.96
1033.00,99.91
1032.00,99.86
1031.00,99.82
1030.00,99.78
1029.00,99.75
1028.00,99.76
1027.00,99.80
1026.00,99.82
1025.00,99.82
1024.00,99.80
1023.00,99.81
1022.00,99.84
1021.00,99.85
1020.00,99.83
1019.00,99.80
1018.00,99.79
1017.00,99.82
1016.00,99.87
1015.00,99.92
1014.00,99.95
1013.00,99.95
1012.00,99.94
1011.00,99.91
1010.00,99.89
1009.00,99.86
1008.00,99.83
1007.00,99.79
1006.00,99.78
1005.00,99.83
1004.00,99.92
1003.00,100.02
1002.00,100.05
1001.00,100.01
1000.00,99.92
999.00,99.80
998.00,99.69
997.00,99.61
996.00,99.59
995.00,99.61
994.00,99.65
993.00,99.70
992.00,99.75
991.00,99.80
990.00,99.84
989.00,99.85
988.00,99.83
987.00,99.76
986.00,99.68
985.00,99.63
984.00,99.65
983.00,99.72
982.00,99.78
981.00,99.79
980.00,99.77
979.00,99.76
978.00,99.79
977.00,99.83
976.00,99.85
975.00,99.81
974.00,99.69
973.00,99.57
972.00,99.55
971.00,99.66
970.00,99.82
969.00,99.92
968.00,99.96
967.00,99.97
966.00,100.00
965.00,100.00
964.00,99.98
963.00,99.93
962.00,99.82
961.00,99.66
960.00,99.50
959.00,99.45
958.00,99.54
957.00,99.72
956.00,99.88
955.00,99.98
954.00,100.00
953.00,99.96
952.00,99.86
951.00,99.72
950.00,99.59
949.00,99.57
948.00,99.73
947.00,100.05
946.00,100.34
945.00,100.45
944.00,100.30
943.00,99.90
942.00,99.35
941.00,98.88
940.00,98.68
939.00,98.80
938.00,99.08
937.00,99.37
936.00,99.64
935.00,99.83
934.00,99.77
933.00,99.43
932.00,99.15
931.00,99.31
930.00,99.83
929.00,100.31
928.00,100.43
927.00,100.27
926.00,100.02
925.00,99.72
924.00,99.40
923.00,99.21
922.00,99.38
921.00,99.92
920.00,100.62
919.00,101.06
918.00,100.87
917.00,100.07
916.00,99.15
915.00,98.70
914.00,98.99
913.00,99.85
912.00,100.88
911.00,101.45
910.00,101.28
909.00,100.79
908.00,100.58
907.00,100.55
906.00,99.98
905.00,98.65
904.00,97.47
903.00,97.18
902.00,97.26
901.00,97.20
900.00,97.91
899.00,100.21
898.00,103.14
897.00,105.31
896.00,106.41
895.00,106.76
894.00,106.05
893.00,104.39
892.00,103.84
891.00,106.09
890.00,108.82
889.00,107.90
888.00,103.36
887.00,99.44
886.00,96.84
885.00,93.47
884.00,91.16
883.00,94.30
882.00,100.48
881.00,104.63
880.00,107.32
879.00,108.91
878.00,104.65
877.00,97.96
876.00,93.30
875.00,93.70
874.00,96.66
873.00,88.99
872.00,82.93
871.00,96.38
870.00,111.43
869.00,110.16
868.00,91.21
867.00,101.95
866.00,122.71
865.00,107.33
864.00,91.48
863.00,114.27
862.00,147.39
861.00,157.44
860.00,173.75
859.00,202.06
858.00,149.25
857.00,88.49
856.00,42.32
855.00,17.07
854.00,33.17
853.00,36.15
852.00,21.79
851.00,81.79
850.00,183.84
849.00,137.39
848.00,63.42
847.00,82.78
846.00,79.23
845.00,26.64
844.00,29.33
843.00,23.77
842.00,92.41
841.00,63.56
840.00,41.69
839.00,75.00
838.00,102.40
837.00,84.65
836.00,41.30
835.00,82.30
834.00,93.37
833.00,26.58
832.00,7.48
831.00,53.51
830.00,511.65
829.00,319.13
828.00,27.48
827.00,65.69
826.00,75.55
825.00,21.32
824.00,54.80
823.00,111.13
822.00,142.42
821.00,98.68
820.00,57.04
819.00,38.09
818.00,56.57
817.00,12.39
816.00,53.57
815.00,88.31
814.00,112.37
813.00,67.95
812.00,21.41
811.00,20.42
810.00,39.38
809.00,10.38
808.00,18.84
807.00,41.65
806.00,92.62
805.00,78.83
804.00,64.70
803.00,94.99
802.00,145.82
801.00,74.93
800.00,19.47
799.00,36.48
798.00,52.14
797.00,27.42
796.00,18.75
795.00,43.46
794.00,159.00
793.00,46.15
792.00,40.75
791.00,59.22
790.00,39.41
789.00,12.98
788.00,8.70
787.00,14.21
786.00,39.31
785.00,71.06
784.00,189.38
783.00,283.51
782.00,98.99
781.00,30.91
780.00,43.57
779.00,51.17
778.00,4.22
777.00,47.21
776.00,19.51
775.00,196.20
774.00,1013.73
773.00,273.33
772.00,48.32
771.00,210.17
770.00,467.37
769.00,90.00
768.00,21.98
767.00,72.32
766.00,96.42
765.00,61.82
764.00,28.79
763.00,62.06
762.00,105.48
761.00,68.52
760.00,37.04
759.00,87.50
758.00,184.87
757.00,121.60
756.00,60.55
755.00,81.56
754.00,107.30
753.00,51.22
752.00,42.60
751.00,35.48
750.00,127.62
749.00,134.02
748.00,125.21
747.00,168.25
746.00,200.15
745.00,162.22
744.00,106.09
743.00,124.30
742.00,236.90
741.00,154.79
740.00,137.81
739.00,470.11
738.00,273.90
737.00,233.35
736.00,72.81
735.00,38.74
734.00,45.12
733.00,31.82
732.00,35.52
731.00,104.81
730.00,373.54
729.00,264.03
728.00,134.84
727.00,157.93
726.00,165.36
725.00,103.15
724.00,75.06
723.00,213.78
722.00,721.32
721.00,403.22
720.00,142.61
719.00,145.39
718.00,365.55
717.00,296.37
716.00,133.61
715.00,219.82
714.00,258.33
713.00,85.62
712.00,24.15
711.00,19.48
710.00,28.50
709.00,20.58
708.00,34.49
707.00,24.72
706.00,32.88
705.00,25.32
704.00,43.36
703.00,61.82
702.00,69.19
701.00,68.65
700.00,89.42
699.00,109.02
698.00,153.19
697.00,181.98
696.00,130.49
695.00,34.42
694.00,89.53
693.00,62.57
692.00,23.57
691.00,75.71
690.00,174.31
689.00,64.97
688.00,17.15
687.00,28.90
686.00,74.88
685.00,23.32
684.00,31.02
683.00,97.08
682.00,160.20
681.00,139.47
680.00,84.01
679.00,63.88
678.00,68.45
677.00,33.73
676.00,24.72
675.00,42.25
674.00,63.50
673.00,44.40
672.00,33.52
671.00,71.58
670.00,103.91
669.00,68.41
668.00,40.44
667.00,74.84
666.00,137.69
665.00,83.24
664.00,44.92
663.00,72.55
662.00,108.13
661.00,18.99
660.00,15.46
659.00,13.81
658.00,8.67
657.00,10.31
656.00,10.15
655.00,69.67
654.00,313.67
653.00,142.91
652.00,109.34
651.00,170.71
650.00,193.91
649.00,58.05
648.00,29.36
647.00,22.23
646.00,69.14
645.00,51.48
644.00,41.65
643.00,61.33
642.00,66.00
641.00,30.12
640.00,10.70
639.00,36.61
638.00,94.85
637.00,22.73
636.00,33.67
635.00,42.16
634.00,34.03
633.00,19.20
632.00,15.74
631.00,41.38
630.00,366.68
629.00,253.28
628.00,119.16
627.00,236.69
626.00,343.04
625.00,128.36
624.00,51.27
623.00,80.30
622.00,80.80
621.00,52.84
620.00,58.29
619.00,51.15
618.00,70.67
617.00,67.75
616.00,40.83
615.00,71.36
614.00,95.42
613.00,55.86
612.00,32.68
611.00,135.43
610.00,658.01
609.00,228.28
608.00,50.24
607.00,52.66
606.00,41.10
605.00,25.36
604.00,17.93
603.00,44.61
602.00,122.70
601.00,120.99
600.00,104.68
599.00,110.69
598.00,125.24
597.00,70.99
596.00,50.35
595.00,69.88
594.00,83.46
593.00,51.52
592.00,45.27
591.00,95.97
590.00,180.29
589.00,127.68
588.00,54.28
587.00,30.06
586.00,48.86
585.00,24.91
584.00,23.94
583.00,54.75
582.00,112.20
581.00,85.06
580.00,95.66
579.00,210.52
578.00,326.87
577.00,166.01
576.00,59.28
575.00,108.58
574.00,171.10
573.00,46.21
572.00,41.35
571.00,28.22
570.00,24.00
569.00,23.54
568.00,26.46
567.00,68.86
566.00,116.90
565.00,93.98
564.00,69.16
563.00,126.99
562.00,328.07
561.00,195.08
560.00,132.08
559.00,126.93
558.00,130.30
557.00,87.72
556.00,50.29
555.00,73.27
554.00,80.30
553.00,5.97
552.00,43.53
551.00,22.20
550.00,29.27
549.00,30.56
548.00,22.50
547.00,76.66
546.00,178.51
545.00,176.90
544.00,90.80
543.00,173.85
542.00,285.29
541.00,63.82
540.00,17.60
539.00,68.43
538.00,415.90
537.00,142.19
536.00,19.66
535.00,42.07
534.00,107.82
533.00,41.44
532.00,22.01
531.00,18.03
530.00,59.16
529.00,36.96
528.00,82.92
527.00,220.47
526.00,143.76
525.00,122.76
524.00,117.80
523.00,69.85
522.00,83.43
521.00,68.14
520.00,64.77
519.00,62.10
518.00,66.84
517.00,30.11
516.00,7.62
515.00,56.34
514.00,121.06
513.00,50.21
512.00,33.68
511.00,55.90
510.00,119.14
509.00,60.48
508.00,32.53
507.00,102.19
506.00,169.95
505.00,94.70
504.00,42.71
503.00,113.61
502.00,412.10
501.00,156.37
500.00,36.04
499.00,47.67
498.00,56.60
497.00,21.35
496.00,37.77
495.00,34.83
494.00,33.62
493.00,18.22
492.00,31.28
491.00,55.47
490.00,157.99
489.00,85.26
488.00,50.32
487.00,132.44
486.00,320.20
485.00,167.09
484.00,144.79
483.00,202.14
482.00,121.39
481.00,84.05
480.00,79.40
479.00,91.99
478.00,129.60
477.00,49.89
476.00,31.40
475.00,76.86
474.00,161.76
473.00,123.88
472.00,71.37
471.00,306.52
470.00,92.00
469.00,93.04
468.00,339.33
467.00,281.94
466.00,188.81
465.00,58.06
464.00,2.78
463.00,28.73
462.00,63.88
461.00,21.42
460.00,20.72
459.00,32.91
458.00,51.67
457.00,44.62
456.00,47.76
455.00,101.59
454.00,237.62
453.00,94.92
452.00,48.22
451.00,64.58
450.00,116.60
