Created as New Dataset,Sample 004 By Administrator Date Tuesday, October 14 2025
cm-1,%T
4000.00,100.69
3999.00,100.68
3998.00,100.67
3997.00,100.66
3996.00,100.66
3995.00,100.67
3994.00,100.67
3993.00,100.68
3992.00,100.69
3991.00,100.70
3990.00,100.70
3989.00,100.70
3988.00,100.70
3987.00,100.69
3986.00,100.68
3985.00,100.68
3984.00,100.69
3983.00,100.70
3982.00,100.70
3981.00,100.69
3980.00,100.68
3979.00,100.68
3978.00,100.67
3977.00,100.66
3976.00,100.66
3975.00,100.67
3974.00,100.67
3973.00,100.68
3972.00,100.68
3971.00,100.67
3970.00,100.67
3969.00,100.67
3968.00,100.66
3967.00,100.67
3966.00,100.67
3965.00,100.67
3964.00,100.68
3963.00,100.68
3962.00,100.68
3961.00,100.67
3960.00,100.67
3959.00,100.67
3958.00,100.67
3957.00,100.67
3956.00,100.67
3955.00,100.68
3954.00,100.68
3953.00,100.68
3952.00,100.68
3951.00,100.68
3950.00,100.69
3949.00,100.69
3948.00,100.70
3947.00,100.72
3946.00,100.73
3945.00,100.76
3944.00,100.77
3943.00,100.76
3942.00,100.74
3941.00,100.73
3940.00,100.73
3939.00,100.72
3938.00,100.70
3937.00,100.69
3936.00,100.68
3935.00,100.69
3934.00,100.69
3933.00,100.69
3932.00,100.69
3931.00,100.70
3930.00,100.71
3929.00,100.71
3928.00,100.72
3927.00,100.73
3926.00,100.75
3925.00,100.74
3924.00,100.73
3923.00,100.73
3922.00,100.75
3921.00,100.75
3920.00,100.72
3919.00,100.70
3918.00,100.71
3917.00,100.72
3916.00,100.71
3915.00,100.71
3914.00,100.72
3913.00,100.72
3912.00,100.70
3911.00,100.70
3910.00,100.72
3909.00,100.74
3908.00,100.76
3907.00,100.80
3906.00,100.85
3905.00,100.88
3904.00,100.87
3903.00,100.83
3902.00,100.82
3901.00,100.84
3900.00,100.84
3899.00,100.81
3898.00,100.78
3897.00,100.77
3896.00,100.75
3895.00,100.75
3894.00,100.78
3893.00,100.86
3892.00,100.93
3891.00,100.90
3890.00,100.81
3889.00,100.75
3888.00,100.75
3887.00,100.79
3886.00,100.79
3885.00,100.75
3884.00,100.73
3883.00,100.76
3882.00,100.81
3881.00,100.82
3880.00,100.82
3879.00,100.81
3878.00,100.80
3877.00,100.80
3876.00,100.81
3875.00,100.81
3874.00,100.79
3873.00,100.81
3872.00,100.89
3871.00,100.96
3870.00,100.91
3869.00,100.79
3868.00,100.76
3867.00,100.82
3866.00,100.85
3865.00,100.81
3864.00,100.78
3863.00,100.81
3862.00,100.81
3861.00,100.77
3860.00,100.74
3859.00,100.70
3858.00,100.57
3857.00,100.37
3856.00,100.25
3855.00,100.32
3854.00,100.44
3853.00,100.43
3852.00,100.38
3851.00,100.42
3850.00,100.49
3849.00,100.54
3848.00,100.60
3847.00,100.67
3846.00,100.73
3845.00,100.77
3844.00,100.82
3843.00,100.84
3842.00,100.83
3841.00,100.84
3840.00,100.88
3839.00,100.91
3838.00,100.88
3837.00,100.82
3836.00,100.79
3835.00,100.79
3834.00,100.81
3833.00,100.82
3832.00,100.80
3831.00,100.74
3830.00,100.69
3829.00,100.68
3828.00,100.71
3827.00,100.73
3826.00,100.72
3825.00,100.72
3824.00,100.78
3823.00,100.88
3822.00,100.93
3821.00,100.87
3820.00,100.76
3819.00,100.71
3818.00,100.72
3817.00,100.71
3816.00,100.61
3815.00,100.52
3814.00,100.55
3813.00,100.65
3812.00,100.70
3811.00,100.67
3810.00,100.64
3809.00,100.69
3808.00,100.74
3807.00,100.72
3806.00,100.63
3805.00,100.59
3804.00,100.62
3803.00,100.66
3802.00,100.64
3801.00,100.56
3800.00,100.52
3799.00,100.56
3798.00,100.64
3797.00,100.68
3796.00,100.70
3795.00,100.71
3794.00,100.72
3793.00,100.72
3792.00,100.70
3791.00,100.70
3790.00,100.71
3789.00,100.72
3788.00,100.69
3787.00,100.67
3786.00,100.66
3785.00,100.68
3784.00,100.69
3783.00,100.70
3782.00,100.71
3781.00,100.72
3780.00,100.72
3779.00,100.71
3778.00,100.72
3777.00,100.73
3776.00,100.75
3775.00,100.73
3774.00,100.70
3773.00,100.70
3772.00,100.73
3771.00,100.75
3770.00,100.75
3769.00,100.75
3768.00,100.77
3767.00,100.78
3766.00,100.76
3765.00,100.73
3764.00,100.71
3763.00,100.71
3762.00,100.71
3761.00,100.70
3760.00,100.68
3759.00,100.69
3758.00,100.67
3757.00,100.60
3756.00,100.48
3755.00,100.35
3754.00,100.17
3753.00,99.86
3752.00,99.44
3751.00,98.97
3750.00,98.52
3749.00,98.14
3748.00,97.83
3747.00,97.48
3746.00,96.92
3745.00,96.13
3744.00,95.35
3743.00,94.84
3742.00,94.49
3741.00,94.00
3740.00,93.35
3739.00,92.77
3738.00,92.51
3737.00,92.64
3736.00,93.27
3735.00,94.35
3734.00,95.39
3733.00,95.83
3732.00,95.59
3731.00,95.11
3730.00,94.82
3729.00,94.81
3728.00,95.00
3727.00,95.23
3726.00,95.41
3725.00,95.49
3724.00,95.46
3723.00,95.38
3722.00,95.30
3721.00,95.30
3720.00,95.44
3719.00,95.78
3718.00,96.33
3717.00,96.89
3716.00,97.19
3715.00,96.99
3714.00,96.21
3713.00,95.15
3712.00,94.38
3711.00,94.18
3710.00,94.38
3709.00,94.72
3708.00,95.05
3707.00,95.33
3706.00,95.58
3705.00,95.84
3704.00,96.17
3703.00,96.53
3702.00,96.81
3701.00,96.94
3700.00,96.95
3699.00,96.91
3698.00,96.85
3697.00,96.78
3696.00,96.72
3695.00,96.68
3694.00,96.65
3693.00,96.69
3692.00,96.93
3691.00,97.38
3690.00,97.78
3689.00,97.86
3688.00,97.61
3687.00,97.33
3686.00,97.26
3685.00,97.39
3684.00,97.58
3683.00,97.75
3682.00,97.93
3681.00,98.10
3680.00,98.22
3679.00,98.29
3678.00,98.40
3677.00,98.62
3676.00,98.90
3675.00,99.14
3674.00,99.33
3673.00,99.54
3672.00,99.71
3671.00,99.81
3670.00,99.87
3669.00,99.93
3668.00,100.02
3667.00,100.11
3666.00,100.18
3665.00,100.22
3664.00,100.26
3663.00,100.31
3662.00,100.38
3661.00,100.41
3660.00,100.42
3659.00,100.44
3658.00,100.49
3657.00,100.51
3656.00,100.48
3655.00,100.44
3654.00,100.45
3653.00,100.48
3652.00,100.48
3651.00,100.43
3650.00,100.30
3649.00,100.09
3648.00,99.79
3647.00,99.47
3646.00,99.17
3645.00,98.86
3644.00,98.49
3643.00,98.08
3642.00,97.69
3641.00,97.31
3640.00,96.94
3639.00,96.59
3638.00,96.27
3637.00,96.00
3636.00,95.76
3635.00,95.57
3634.00,95.44
3633.00,95.32
3632.00,95.16
3631.00,94.96
3630.00,94.83
3629.00,94.89
3628.00,95.11
3627.00,95.38
3626.00,95.61
3625.00,95.77
3624.00,96.04
3623.00,96.61
3622.00,97.46
3621.00,98.20
3620.00,98.38
3619.00,97.97
3618.00,97.47
3617.00,97.37
3616.00,97.79
3615.00,98.42
3614.00,98.82
3613.00,98.72
3612.00,98.14
3611.00,97.33
3610.00,96.53
3609.00,95.99
3608.00,95.79
3607.00,95.85
3606.00,95.96
3605.00,96.00
3604.00,95.96
3603.00,95.87
3602.00,95.78
3601.00,95.76
3600.00,95.82
3599.00,95.91
3598.00,95.94
3597.00,95.87
3596.00,95.77
3595.00,95.71
3594.00,95.74
3593.00,95.86
3592.00,96.02
3591.00,96.19
3590.00,96.37
3589.00,96.57
3588.00,96.80
3587.00,97.02
3586.00,97.22
3585.00,97.42
3584.00,97.63
3583.00,97.85
3582.00,98.05
3581.00,98.23
3580.00,98.39
3579.00,98.49
3578.00,98.54
3577.00,98.57
3576.00,98.61
3575.00,98.67
3574.00,98.75
3573.00,98.83
3572.00,98.90
3571.00,98.95
3570.00,98.98
3569.00,99.00
3568.00,99.04
3567.00,99.11
3566.00,99.21
3565.00,99.31
3564.00,99.39
3563.00,99.47
3562.00,99.55
3561.00,99.63
3560.00,99.71
3559.00,99.78
3558.00,99.83
3557.00,99.88
3556.00,99.92
3555.00,99.95
3554.00,99.99
3553.00,100.02
3552.00,100.07
3551.00,100.12
3550.00,100.16
3549.00,100.18
3548.00,100.20
3547.00,100.23
3546.00,100.27
3545.00,100.31
3544.00,100.34
3543.00,100.37
3542.00,100.40
3541.00,100.42
3540.00,100.45
3539.00,100.47
3538.00,100.49
3537.00,100.51
3536.00,100.53
3535.00,100.55
3534.00,100.57
3533.00,100.58
3532.00,100.57
3531.00,100.57
3530.00,100.57
3529.00,100.57
3528.00,100.57
3527.00,100.57
3526.00,100.57
3525.00,100.57
3524.00,100.56
3523.00,100.57
3522.00,100.59
3521.00,100.60
3520.00,100.60
3519.00,100.60
3518.00,100.60
3517.00,100.60
3516.00,100.61
3515.00,100.61
3514.00,100.61
3513.00,100.60
3512.00,100.59
3511.00,100.59
3510.00,100.59
3509.00,100.60
3508.00,100.61
3507.00,100.61
3506.00,100.60
3505.00,100.59
3504.00,100.59
3503.00,100.60
3502.00,100.62
3501.00,100.64
3500.00,100.64
3499.00,100.65
3498.00,100.65
3497.00,100.65
3496.00,100.66
3495.00,100.67
3494.00,100.68
3493.00,100.68
3492.00,100.67
3491.00,100.67
3490.00,100.67
3489.00,100.67
3488.00,100.67
3487.00,100.67
3486.00,100.67
3485.00,100.67
3484.00,100.67
3483.00,100.67
3482.00,100.67
3481.00,100.67
3480.00,100.68
3479.00,100.69
3478.00,100.68
3477.00,100.68
3476.00,100.67
3475.00,100.67
3474.00,100.68
3473.00,100.69
3472.00,100.69
3471.00,100.69
3470.00,100.68
3469.00,100.67
3468.00,100.68
3467.00,100.68
3466.00,100.69
3465.00,100.69
3464.00,100.69
3463.00,100.69
3462.00,100.68
3461.00,100.68
3460.00,100.69
3459.00,100.70
3458.00,100.70
3457.00,100.70
3456.00,100.70
3455.00,100.70
3454.00,100.70
3453.00,100.70
3452.00,100.70
3451.00,100.70
3450.00,100.70
3449.00,100.69
3448.00,100.69
3447.00,100.69
3446.00,100.70
3445.00,100.70
3444.00,100.69
3443.00,100.69
3442.00,100.70
3441.00,100.70
3440.00,100.71
3439.00,100.71
3438.00,100.70
3437.00,100.71
3436.00,100.71
3435.00,100.70
3434.00,100.70
3433.00,100.70
3432.00,100.70
3431.00,100.70
3430.00,100.70
3429.00,100.71
3428.00,100.72
3427.00,100.72
3426.00,100.72
3425.00,100.72
3424.00,100.71
3423.00,100.70
3422.00,100.69
3421.00,100.70
3420.00,100.70
3419.00,100.71
3418.00,100.71
3417.00,100.72
3416.00,100.72
3415.00,100.71
3414.00,100.71
3413.00,100.70
3412.00,100.70
3411.00,100.69
3410.00,100.70
3409.00,100.70
3408.00,100.70
3407.00,100.70
3406.00,100.70
3405.00,100.70
3404.00,100.70
3403.00,100.70
3402.00,100.70
3401.00,100.70
3400.00,100.69
3399.00,100.69
3398.00,100.70
3397.00,100.70
3396.00,100.70
3395.00,100.70
3394.00,100.70
3393.00,100.70
3392.00,100.71
3391.00,100.71
3390.00,100.72
3389.00,100.72
3388.00,100.72
3387.00,100.72
3386.00,100.72
3385.00,100.71
3384.00,100.71
3383.00,100.71
3382.00,100.71
3381.00,100.71
3380.00,100.71
3379.00,100.71
3378.00,100.71
3377.00,100.71
3376.00,100.71
3375.00,100.71
3374.00,100.70
3373.00,100.70
3372.00,100.70
3371.00,100.70
3370.00,100.70
3369.00,100.69
3368.00,100.68
3367.00,100.68
3366.00,100.69
3365.00,100.70
3364.00,100.70
3363.00,100.70
3362.00,100.70
3361.00,100.70
3360.00,100.70
3359.00,100.71
3358.00,100.70
3357.00,100.69
3356.00,100.69
3355.00,100.69
3354.00,100.70
3353.00,100.70
3352.00,100.70
3351.00,100.70
3350.00,100.70
3349.00,100.70
3348.00,100.72
3347.00,100.73
3346.00,100.73
3345.00,100.73
3344.00,100.72
3343.00,100.72
3342.00,100.72
3341.00,100.71
3340.00,100.71
3339.00,100.71
3338.00,100.71
3337.00,100.71
3336.00,100.71
3335.00,100.72
3334.00,100.72
3333.00,100.72
3332.00,100.72
3331.00,100.72
3330.00,100.72
3329.00,100.72
3328.00,100.72
3327.00,100.72
3326.00,100.72
3325.00,100.73
3324.00,100.73
3323.00,100.73
3322.00,100.72
3321.00,100.71
3320.00,100.71
3319.00,100.71
3318.00,100.71
3317.00,100.70
3316.00,100.70
3315.00,100.70
3314.00,100.71
3313.00,100.72
3312.00,100.72
3311.00,100.72
3310.00,100.71
3309.00,100.70
3308.00,100.69
3307.00,100.69
3306.00,100.70
3305.00,100.71
3304.00,100.73
3303.00,100.73
3302.00,100.73
3301.00,100.72
3300.00,100.72
3299.00,100.71
3298.00,100.71
3297.00,100.70
3296.00,100.70
3295.00,100.71
3294.00,100.71
3293.00,100.71
3292.00,100.71
3291.00,100.71
3290.00,100.72
3289.00,100.73
3288.00,100.74
3287.00,100.75
3286.00,100.75
3285.00,100.74
3284.00,100.73
3283.00,100.73
3282.00,100.73
3281.00,100.73
3280.00,100.72
3279.00,100.72
3278.00,100.71
3277.00,100.70
3276.00,100.69
3275.00,100.70
3274.00,100.71
3273.00,100.72
3272.00,100.73
3271.00,100.73
3270.00,100.74
3269.00,100.73
3268.00,100.73
3267.00,100.73
3266.00,100.74
3265.00,100.74
3264.00,100.74
3263.00,100.74
3262.00,100.73
3261.00,100.72
3260.00,100.72
3259.00,100.73
3258.00,100.73
3257.00,100.73
3256.00,100.73
3255.00,100.72
3254.00,100.72
3253.00,100.72
3252.00,100.72
3251.00,100.72
3250.00,100.72
3249.00,100.72
3248.00,100.72
3247.00,100.71
3246.00,100.70
3245.00,100.70
3244.00,100.70
3243.00,100.71
3242.00,100.71
3241.00,100.71
3240.00,100.72
3239.00,100.73
3238.00,100.73
3237.00,100.73
3236.00,100.73
3235.00,100.72
3234.00,100.72
3233.00,100.71
3232.00,100.71
3231.00,100.72
3230.00,100.72
3229.00,100.73
3228.00,100.73
3227.00,100.73
3226.00,100.74
3225.00,100.73
3224.00,100.73
3223.00,100.72
3222.00,100.72
3221.00,100.71
3220.00,100.70
3219.00,100.70
3218.00,100.70
3217.00,100.70
3216.00,100.71
3215.00,100.71
3214.00,100.71
3213.00,100.72
3212.00,100.72
3211.00,100.72
3210.00,100.72
3209.00,100.72
3208.00,100.73
3207.00,100.73
3206.00,100.73
3205.00,100.73
3204.00,100.73
3203.00,100.74
3202.00,100.74
3201.00,100.73
3200.00,100.73
3199.00,100.72
3198.00,100.72
3197.00,100.73
3196.00,100.73
3195.00,100.73
3194.00,100.73
3193.00,100.72
3192.00,100.72
3191.00,100.72
3190.00,100.72
3189.00,100.73
3188.00,100.73
3187.00,100.74
3186.00,100.74
3185.00,100.74
3184.00,100.74
3183.00,100.74
3182.00,100.74
3181.00,100.73
3180.00,100.72
3179.00,100.72
3178.00,100.73
3177.00,100.73
3176.00,100.74
3175.00,100.75
3174.00,100.75
3173.00,100.75
3172.00,100.75
3171.00,100.75
3170.00,100.75
3169.00,100.74
3168.00,100.74
3167.00,100.74
3166.00,100.74
3165.00,100.74
3164.00,100.74
3163.00,100.74
3162.00,100.74
3161.00,100.74
3160.00,100.74
3159.00,100.75
3158.00,100.75
3157.00,100.74
3156.00,100.74
3155.00,100.73
3154.00,100.73
3153.00,100.73
3152.00,100.73
3151.00,100.74
3150.00,100.74
3149.00,100.73
3148.00,100.73
3147.00,100.73
3146.00,100.73
3145.00,100.73
3144.00,100.73
3143.00,100.74
3142.00,100.74
3141.00,100.74
3140.00,100.74
3139.00,100.75
3138.00,100.74
3137.00,100.74
3136.00,100.74
3135.00,100.73
3134.00,100.73
3133.00,100.72
3132.00,100.73
3131.00,100.73
3130.00,100.73
3129.00,100.73
3128.00,100.73
3127.00,100.73
3126.00,100.73
3125.00,100.72
3124.00,100.72
3123.00,100.71
3122.00,100.71
3121.00,100.71
3120.00,100.71
3119.00,100.71
3118.00,100.71
3117.00,100.70
3116.00,100.70
3115.00,100.71
3114.00,100.71
3113.00,100.72
3112.00,100.73
3111.00,100.73
3110.00,100.72
3109.00,100.72
3108.00,100.73
3107.00,100.73
3106.00,100.73
3105.00,100.73
3104.00,100.73
3103.00,100.72
3102.00,100.72
3101.00,100.71
3100.00,100.72
3099.00,100.72
3098.00,100.72
3097.00,100.71
3096.00,100.71
3095.00,100.71
3094.00,100.72
3093.00,100.73
3092.00,100.74
3091.00,100.74
3090.00,100.74
3089.00,100.74
3088.00,100.74
3087.00,100.74
3086.00,100.74
3085.00,100.74
3084.00,100.74
3083.00,100.73
3082.00,100.73
3081.00,100.72
3080.00,100.72
3079.00,100.71
3078.00,100.72
3077.00,100.72
3076.00,100.73
3075.00,100.73
3074.00,100.73
3073.00,100.73
3072.00,100.73
3071.00,100.73
3070.00,100.73
3069.00,100.72
3068.00,100.71
3067.00,100.71
3066.00,100.71
3065.00,100.72
3064.00,100.73
3063.00,100.74
3062.00,100.74
3061.00,100.74
3060.00,100.74
3059.00,100.74
3058.00,100.73
3057.00,100.73
3056.00,100.73
3055.00,100.73
3054.00,100.74
3053.00,100.74
3052.00,100.74
3051.00,100.74
3050.00,100.74
3049.00,100.73
3048.00,100.74
3047.00,100.74
3046.00,100.75
3045.00,100.75
3044.00,100.75
3043.00,100.75
3042.00,100.75
3041.00,100.74
3040.00,100.73
3039.00,100.73
3038.00,100.73
3037.00,100.73
3036.00,100.73
3035.00,100.73
3034.00,100.73
3033.00,100.73
3032.00,100.72
3031.00,100.72
3030.00,100.73
3029.00,100.73
3028.00,100.73
3027.00,100.74
3026.00,100.73
3025.00,100.73
3024.00,100.74
3023.00,100.74
3022.00,100.73
3021.00,100.73
3020.00,100.72
3019.00,100.71
3018.00,100.71
3017.00,100.70
3016.00,100.70
3015.00,100.70
3014.00,100.70
3013.00,100.70
3012.00,100.71
3011.00,100.72
3010.00,100.72
3009.00,100.73
3008.00,100.74
3007.00,100.74
3006.00,100.75
3005.00,100.74
3004.00,100.74
3003.00,100.74
3002.00,100.74
3001.00,100.73
3000.00,100.73
2999.00,100.73
2998.00,100.73
2997.00,100.73
2996.00,100.73
2995.00,100.74
2994.00,100.74
2993.00,100.75
2992.00,100.75
2991.00,100.75
2990.00,100.75
2989.00,100.74
2988.00,100.74
2987.00,100.74
2986.00,100.74
2985.00,100.73
2984.00,100.73
2983.00,100.74
2982.00,100.74
2981.00,100.75
2980.00,100.74
2979.00,100.74
2978.00,100.73
2977.00,100.73
2976.00,100.74
2975.00,100.74
2974.00,100.74
2973.00,100.74
2972.00,100.74
2971.00,100.74
2970.00,100.74
2969.00,100.74
2968.00,100.75
2967.00,100.75
2966.00,100.76
2965.00,100.76
2964.00,100.75
2963.00,100.75
2962.00,100.74
2961.00,100.74
2960.00,100.73
2959.00,100.74
2958.00,100.74
2957.00,100.75
2956.00,100.75
2955.00,100.74
2954.00,100.74
2953.00,100.73
2952.00,100.73
2951.00,100.74
2950.00,100.74
2949.00,100.74
2948.00,100.73
2947.00,100.73
2946.00,100.73
2945.00,100.73
2944.00,100.73
2943.00,100.73
2942.00,100.73
2941.00,100.73
2940.00,100.73
2939.00,100.74
2938.00,100.74
2937.00,100.75
2936.00,100.75
2935.00,100.75
2934.00,100.74
2933.00,100.74
2932.00,100.75
2931.00,100.75
2930.00,100.75
2929.00,100.75
2928.00,100.75
2927.00,100.75
2926.00,100.75
2925.00,100.75
2924.00,100.75
2923.00,100.75
2922.00,100.76
2921.00,100.76
2920.00,100.77
2919.00,100.78
2918.00,100.78
2917.00,100.78
2916.00,100.78
2915.00,100.77
2914.00,100.77
2913.00,100.77
2912.00,100.76
2911.00,100.76
2910.00,100.76
2909.00,100.75
2908.00,100.75
2907.00,100.75
2906.00,100.74
2905.00,100.75
2904.00,100.75
2903.00,100.76
2902.00,100.76
2901.00,100.76
2900.00,100.76
2899.00,100.75
2898.00,100.75
2897.00,100.74
2896.00,100.74
2895.00,100.75
2894.00,100.76
2893.00,100.76
2892.00,100.76
2891.00,100.75
2890.00,100.74
2889.00,100.74
2888.00,100.74
2887.00,100.74
2886.00,100.75
2885.00,100.75
2884.00,100.75
2883.00,100.76
2882.00,100.75
2881.00,100.75
2880.00,100.74
2879.00,100.74
2878.00,100.75
2877.00,100.75
2876.00,100.75
2875.00,100.75
2874.00,100.75
2873.00,100.76
2872.00,100.76
2871.00,100.76
2870.00,100.76
2869.00,100.76
2868.00,100.75
2867.00,100.75
2866.00,100.74
2865.00,100.75
2864.00,100.75
2863.00,100.75
2862.00,100.75
2861.00,100.76
2860.00,100.76
2859.00,100.76
2858.00,100.76
2857.00,100.75
2856.00,100.74
2855.00,100.74
2854.00,100.74
2853.00,100.74
2852.00,100.75
2851.00,100.77
2850.00,100.78
2849.00,100.79
2848.00,100.79
2847.00,100.78
2846.00,100.77
2845.00,100.76
2844.00,100.76
2843.00,100.76
2842.00,100.76
2841.00,100.76
2840.00,100.76
2839.00,100.76
2838.00,100.76
2837.00,100.76
2836.00,100.76
2835.00,100.76
2834.00,100.76
2833.00,100.76
2832.00,100.77
2831.00,100.77
2830.00,100.77
2829.00,100.77
2828.00,100.76
2827.00,100.75
2826.00,100.75
2825.00,100.75
2824.00,100.75
2823.00,100.76
2822.00,100.76
2821.00,100.75
2820.00,100.75
2819.00,100.75
2818.00,100.75
2817.00,100.75
2816.00,100.75
2815.00,100.75
2814.00,100.75
2813.00,100.75
2812.00,100.74
2811.00,100.75
2810.00,100.75
2809.00,100.75
2808.00,100.75
2807.00,100.75
2806.00,100.75
2805.00,100.76
2804.00,100.76
2803.00,100.76
2802.00,100.76
2801.00,100.76
2800.00,100.76
2799.00,100.76
2798.00,100.76
2797.00,100.76
2796.00,100.76
2795.00,100.75
2794.00,100.75
2793.00,100.76
2792.00,100.76
2791.00,100.75
2790.00,100.75
2789.00,100.75
2788.00,100.75
2787.00,100.75
2786.00,100.76
2785.00,100.76
2784.00,100.76
2783.00,100.76
2782.00,100.76
2781.00,100.76
2780.00,100.76
2779.00,100.76
2778.00,100.76
2777.00,100.76
2776.00,100.76
2775.00,100.76
2774.00,100.75
2773.00,100.75
2772.00,100.75
2771.00,100.75
2770.00,100.75
2769.00,100.75
2768.00,100.75
2767.00,100.75
2766.00,100.75
2765.00,100.75
2764.00,100.75
2763.00,100.75
2762.00,100.75
2761.00,100.75
2760.00,100.75
2759.00,100.75
2758.00,100.75
2757.00,100.75
2756.00,100.75
2755.00,100.75
2754.00,100.75
2753.00,100.75
2752.00,100.75
2751.00,100.75
2750.00,100.75
2749.00,100.75
2748.00,100.75
2747.00,100.75
2746.00,100.75
2745.00,100.75
2744.00,100.75
2743.00,100.76
2742.00,100.76
2741.00,100.76
2740.00,100.76
2739.00,100.77
2738.00,100.76
2737.00,100.76
2736.00,100.75
2735.00,100.74
2734.00,100.74
2733.00,100.75
2732.00,100.75
2731.00,100.75
2730.00,100.75
2729.00,100.75
2728.00,100.76
2727.00,100.76
2726.00,100.76
2725.00,100.75
2724.00,100.75
2723.00,100.75
2722.00,100.76
2721.00,100.76
2720.00,100.77
2719.00,100.77
2718.00,100.77
2717.00,100.77
2716.00,100.76
2715.00,100.76
2714.00,100.75
2713.00,100.75
2712.00,100.75
2711.00,100.76
2710.00,100.76
2709.00,100.76
2708.00,100.76
2707.00,100.76
2706.00,100.76
2705.00,100.76
2704.00,100.76
2703.00,100.76
2702.00,100.76
2701.00,100.77
2700.00,100.77
2699.00,100.77
2698.00,100.77
2697.00,100.76
2696.00,100.76
2695.00,100.76
2694.00,100.76
2693.00,100.76
2692.00,100.77
2691.00,100.77
2690.00,100.77
2689.00,100.76
2688.00,100.75
2687.00,100.75
2686.00,100.75
2685.00,100.75
2684.00,100.76
2683.00,100.77
2682.00,100.76
2681.00,100.76
2680.00,100.75
2679.00,100.75
2678.00,100.75
2677.00,100.75
2676.00,100.75
2675.00,100.75
2674.00,100.75
2673.00,100.75
2672.00,100.75
2671.00,100.75
2670.00,100.75
2669.00,100.75
2668.00,100.76
2667.00,100.76
2666.00,100.76
2665.00,100.76
2664.00,100.76
2663.00,100.76
2662.00,100.76
2661.00,100.76
2660.00,100.75
2659.00,100.75
2658.00,100.75
2657.00,100.75
2656.00,100.75
2655.00,100.76
2654.00,100.75
2653.00,100.75
2652.00,100.75
2651.00,100.75
2650.00,100.75
2649.00,100.76
2648.00,100.76
2647.00,100.76
2646.00,100.76
2645.00,100.76
2644.00,100.76
2643.00,100.75
2642.00,100.75
2641.00,100.75
2640.00,100.75
2639.00,100.75
2638.00,100.75
2637.00,100.75
2636.00,100.75
2635.00,100.75
2634.00,100.75
2633.00,100.76
2632.00,100.76
2631.00,100.76
2630.00,100.76
2629.00,100.75
2628.00,100.75
2627.00,100.75
2626.00,100.75
2625.00,100.75
2624.00,100.76
2623.00,100.75
2622.00,100.75
2621.00,100.76
2620.00,100.76
2619.00,100.77
2618.00,100.77
2617.00,100.77
2616.00,100.77
2615.00,100.77
2614.00,100.76
2613.00,100.76
2612.00,100.76
2611.00,100.76
2610.00,100.76
2609.00,100.75
2608.00,100.75
2607.00,100.75
2606.00,100.76
2605.00,100.76
2604.00,100.76
2603.00,100.76
2602.00,100.76
2601.00,100.76
2600.00,100.76
2599.00,100.77
2598.00,100.77
2597.00,100.77
2596.00,100.77
2595.00,100.76
2594.00,100.76
2593.00,100.76
2592.00,100.76
2591.00,100.76
2590.00,100.76
2589.00,100.76
2588.00,100.76
2587.00,100.77
2586.00,100.77
2585.00,100.77
2584.00,100.77
2583.00,100.77
2582.00,100.77
2581.00,100.77
2580.00,100.77
2579.00,100.76
2578.00,100.76
2577.00,100.76
2576.00,100.76
2575.00,100.76
2574.00,100.77
2573.00,100.77
2572.00,100.77
2571.00,100.76
2570.00,100.76
2569.00,100.76
2568.00,100.75
2567.00,100.75
2566.00,100.75
2565.00,100.76
2564.00,100.76
2563.00,100.75
2562.00,100.75
2561.00,100.75
2560.00,100.75
2559.00,100.75
2558.00,100.76
2557.00,100.76
2556.00,100.76
2555.00,100.76
2554.00,100.76
2553.00,100.75
2552.00,100.76
2551.00,100.76
2550.00,100.76
2549.00,100.75
2548.00,100.75
2547.00,100.75
2546.00,100.75
2545.00,100.75
2544.00,100.76
2543.00,100.76
2542.00,100.77
2541.00,100.76
2540.00,100.76
2539.00,100.76
2538.00,100.77
2537.00,100.77
2536.00,100.77
2535.00,100.77
2534.00,100.77
2533.00,100.76
2532.00,100.76
2531.00,100.76
2530.00,100.76
2529.00,100.76
2528.00,100.76
2527.00,100.76
2526.00,100.77
2525.00,100.76
2524.00,100.76
2523.00,100.77
2522.00,100.77
2521.00,100.77
2520.00,100.77
2519.00,100.77
2518.00,100.77
2517.00,100.77
2516.00,100.77
2515.00,100.77
2514.00,100.76
2513.00,100.76
2512.00,100.76
2511.00,100.76
2510.00,100.77
2509.00,100.77
2508.00,100.78
2507.00,100.78
2506.00,100.77
2505.00,100.77
2504.00,100.77
2503.00,100.77
2502.00,100.77
2501.00,100.77
2500.00,100.77
2499.00,100.77
2498.00,100.77
2497.00,100.77
2496.00,100.77
2495.00,100.78
2494.00,100.78
2493.00,100.78
2492.00,100.78
2491.00,100.77
2490.00,100.76
2489.00,100.76
2488.00,100.76
2487.00,100.76
2486.00,100.77
2485.00,100.77
2484.00,100.77
2483.00,100.77
2482.00,100.77
2481.00,100.78
2480.00,100.78
2479.00,100.78
2478.00,100.77
2477.00,100.77
2476.00,100.77
2475.00,100.77
2474.00,100.77
2473.00,100.77
2472.00,100.77
2471.00,100.77
2470.00,100.77
2469.00,100.78
2468.00,100.78
2467.00,100.78
2466.00,100.79
2465.00,100.79
2464.00,100.79
2463.00,100.79
2462.00,100.78
2461.00,100.78
2460.00,100.78
2459.00,100.77
2458.00,100.77
2457.00,100.77
2456.00,100.77
2455.00,100.77
2454.00,100.77
2453.00,100.77
2452.00,100.77
2451.00,100.77
2450.00,100.77
2449.00,100.77
2448.00,100.77
2447.00,100.76
2446.00,100.75
2445.00,100.75
2444.00,100.75
2443.00,100.76
2442.00,100.77
2441.00,100.77
2440.00,100.78
2439.00,100.78
2438.00,100.78
2437.00,100.78
2436.00,100.78
2435.00,100.78
2434.00,100.78
2433.00,100.78
2432.00,100.78
2431.00,100.78
2430.00,100.77
2429.00,100.77
2428.00,100.78
2427.00,100.78
2426.00,100.78
2425.00,100.78
2424.00,100.78
2423.00,100.78
2422.00,100.77
2421.00,100.77
2420.00,100.77
2419.00,100.76
2418.00,100.76
2417.00,100.76
2416.00,100.76
2415.00,100.76
2414.00,100.76
2413.00,100.76
2412.00,100.77
2411.00,100.77
2410.00,100.77
2409.00,100.77
2408.00,100.77
2407.00,100.77
2406.00,100.76
2405.00,100.76
2404.00,100.75
2403.00,100.75
2402.00,100.75
2401.00,100.75
2400.00,100.75
2399.00,100.75
2398.00,100.75
2397.00,100.75
2396.00,100.74
2395.00,100.72
2394.00,100.65
2393.00,100.51
2392.00,100.23
2391.00,99.72
2390.00,98.89
2389.00,97.67
2388.00,96.12
2387.00,94.39
2386.00,92.80
2385.00,91.71
2384.00,91.45
2383.00,92.19
2382.00,93.89
2381.00,96.24
2380.00,98.76
2379.00,100.78
2378.00,101.70
2377.00,101.16
2376.00,99.23
2375.00,96.38
2374.00,93.32
2373.00,90.74
2372.00,89.04
2371.00,88.29
2370.00,88.22
2369.00,88.59
2368.00,89.12
2367.00,89.35
2366.00,89.17
2365.00,88.81
2364.00,88.74
2363.00,88.76
2362.00,88.14
2361.00,86.89
2360.00,85.38
2359.00,84.03
2358.00,83.63
2357.00,84.44
2356.00,85.41
2355.00,85.56
2354.00,85.74
2353.00,86.84
2352.00,87.66
2351.00,86.92
2350.00,85.42
2349.00,84.62
2348.00,85.08
2347.00,84.56
2346.00,83.30
2345.00,76.71
2344.00,76.93
2343.00,68.72
2342.00,85.12
2341.00,38.22
2340.00,-2.64
2339.00,11.29
2338.00,4.37
2337.00,8.49
2336.00,6.68
2335.00,8.11
2334.00,7.96
2333.00,8.40
2332.00,8.61
2331.00,9.45
2330.00,8.92
2329.00,11.57
2328.00,8.68
2327.00,16.11
2326.00,3.94
2325.00,50.73
2324.00,90.47
2323.00,78.36
2322.00,85.08
2321.00,80.91
2320.00,81.99
2319.00,80.20
2318.00,80.43
2317.00,80.83
2316.00,81.77
2315.00,82.45
2314.00,82.17
2313.00,80.81
2312.00,78.97
2311.00,77.55
2310.00,77.10
2309.00,77.65
2308.00,79.01
2307.00,80.79
2306.00,82.42
2305.00,83.20
2304.00,82.87
2303.00,81.91
2302.00,81.19
2301.00,81.19
2300.00,81.68
2299.00,82.11
2298.00,82.25
2297.00,82.28
2296.00,82.55
2295.00,83.19
2294.00,84.18
2293.00,85.31
2292.00,86.42
2291.00,87.37
2290.00,88.25
2289.00,89.21
2288.00,90.33
2287.00,91.60
2286.00,92.87
2285.00,93.97
2284.00,94.68
2283.00,94.94
2282.00,94.85
2281.00,94.67
2280.00,94.61
2279.00,94.72
2278.00,94.92
2277.00,95.17
2276.00,95.44
2275.00,95.72
2274.00,95.97
2273.00,96.18
2272.00,96.36
2271.00,96.49
2270.00,96.55
2269.00,96.55
2268.00,96.52
2267.00,96.48
2266.00,96.45
2265.00,96.45
2264.00,96.48
2263.00,96.53
2262.00,96.62
2261.00,96.72
2260.00,96.82
2259.00,96.89
2258.00,96.94
2257.00,97.01
2256.00,97.13
2255.00,97.28
2254.00,97.44
2253.00,97.62
2252.00,97.82
2251.00,98.03
2250.00,98.24
2249.00,98.45
2248.00,98.65
2247.00,98.83
2246.00,98.99
2245.00,99.15
2244.00,99.31
2243.00,99.46
2242.00,99.60
2241.00,99.73
2240.00,99.85
2239.00,99.96
2238.00,100.05
2237.00,100.13
2236.00,100.21
2235.00,100.28
2234.00,100.35
2233.00,100.40
2232.00,100.46
2231.00,100.50
2230.00,100.54
2229.00,100.57
2228.00,100.60
2227.00,100.63
2226.00,100.65
2225.00,100.67
2224.00,100.69
2223.00,100.70
2222.00,100.72
2221.00,100.73
2220.00,100.75
2219.00,100.76
2218.00,100.76
2217.00,100.76
2216.00,100.76
2215.00,100.76
2214.00,100.77
2213.00,100.77
2212.00,100.77
2211.00,100.77
2210.00,100.77
2209.00,100.77
2208.00,100.78
2207.00,100.78
2206.00,100.79
2205.00,100.79
2204.00,100.79
2203.00,100.79
2202.00,100.79
2201.00,100.79
2200.00,100.79
2199.00,100.79
2198.00,100.79
2197.00,100.79
2196.00,100.80
2195.00,100.80
2194.00,100.80
2193.00,100.79
2192.00,100.79
2191.00,100.79
2190.00,100.79
2189.00,100.79
2188.00,100.79
2187.00,100.79
2186.00,100.79
2185.00,100.79
2184.00,100.79
2183.00,100.79
2182.00,100.79
2181.00,100.80
2180.00,100.80
2179.00,100.80
2178.00,100.80
2177.00,100.79
2176.00,100.80
2175.00,100.80
2174.00,100.80
2173.00,100.80
2172.00,100.80
2171.00,100.80
2170.00,100.80
2169.00,100.80
2168.00,100.80
2167.00,100.79
2166.00,100.78
2165.00,100.78
2164.00,100.79
2163.00,100.80
2162.00,100.80
2161.00,100.80
2160.00,100.80
2159.00,100.80
2158.00,100.79
2157.00,100.79
2156.00,100.79
2155.00,100.79
2154.00,100.79
2153.00,100.80
2152.00,100.81
2151.00,100.81
2150.00,100.81
2149.00,100.81
2148.00,100.81
2147.00,100.81
2146.00,100.80
2145.00,100.80
2144.00,100.80
2143.00,100.80
2142.00,100.79
2141.00,100.78
2140.00,100.78
2139.00,100.78
2138.00,100.78
2137.00,100.79
2136.00,100.79
2135.00,100.79
2134.00,100.79
2133.00,100.79
2132.00,100.78
2131.00,100.78
2130.00,100.77
2129.00,100.78
2128.00,100.79
2127.00,100.80
2126.00,100.80
2125.00,100.80
2124.00,100.80
2123.00,100.80
2122.00,100.80
2121.00,100.80
2120.00,100.80
2119.00,100.79
2118.00,100.79
2117.00,100.79
2116.00,100.79
2115.00,100.79
2114.00,100.79
2113.00,100.79
2112.00,100.80
2111.00,100.80
2110.00,100.80
2109.00,100.80
2108.00,100.79
2107.00,100.79
2106.00,100.79
2105.00,100.79
2104.00,100.80
2103.00,100.80
2102.00,100.80
2101.00,100.80
2100.00,100.80
2099.00,100.79
2098.00,100.79
2097.00,100.78
2096.00,100.76
2095.00,100.75
2094.00,100.74
2093.00,100.75
2092.00,100.77
2091.00,100.78
2090.00,100.78
2089.00,100.78
2088.00,100.78
2087.00,100.78
2086.00,100.79
2085.00,100.79
2084.00,100.79
2083.00,100.78
2082.00,100.77
2081.00,100.73
2080.00,100.66
2079.00,100.57
2078.00,100.52
2077.00,100.56
2076.00,100.65
2075.00,100.74
2074.00,100.78
2073.00,100.78
2072.00,100.77
2071.00,100.77
2070.00,100.76
2069.00,100.76
2068.00,100.76
2067.00,100.76
2066.00,100.75
2065.00,100.74
2064.00,100.74
2063.00,100.74
2062.00,100.74
2061.00,100.74
2060.00,100.75
2059.00,100.75
2058.00,100.75
2057.00,100.75
2056.00,100.75
2055.00,100.76
2054.00,100.75
2053.00,100.75
2052.00,100.76
2051.00,100.76
2050.00,100.77
2049.00,100.78
2048.00,100.79
2047.00,100.79
2046.00,100.78
2045.00,100.77
2044.00,100.77
2043.00,100.78
2042.00,100.77
2041.00,100.78
2040.00,100.79
2039.00,100.79
2038.00,100.79
2037.00,100.79
2036.00,100.80
2035.00,100.80
2034.00,100.80
2033.00,100.81
2032.00,100.81
2031.00,100.81
2030.00,100.81
2029.00,100.81
2028.00,100.81
2027.00,100.82
2026.00,100.82
2025.00,100.82
2024.00,100.82
2023.00,100.82
2022.00,100.81
2021.00,100.81
2020.00,100.81
2019.00,100.80
2018.00,100.80
2017.00,100.81
2016.00,100.82
2015.00,100.82
2014.00,100.82
2013.00,100.81
2012.00,100.82
2011.00,100.82
2010.00,100.82
2009.00,100.82
2008.00,100.82
2007.00,100.82
2006.00,100.81
2005.00,100.80
2004.00,100.80
2003.00,100.80
2002.00,100.80
2001.00,100.80
2000.00,100.80
1999.00,100.81
1998.00,100.81
1997.00,100.81
1996.00,100.81
1995.00,100.81
1994.00,100.81
1993.00,100.81
1992.00,100.82
1991.00,100.82
1990.00,100.81
1989.00,100.81
1988.00,100.81
1987.00,100.81
1986.00,100.82
1985.00,100.82
1984.00,100.82
1983.00,100.82
1982.00,100.83
1981.00,100.83
1980.00,100.83
1979.00,100.83
1978.00,100.83
1977.00,100.82
1976.00,100.82
1975.00,100.82
1974.00,100.82
1973.00,100.82
1972.00,100.82
1971.00,100.82
1970.00,100.82
1969.00,100.81
1968.00,100.80
1967.00,100.80
1966.00,100.81
1965.00,100.81
1964.00,100.81
1963.00,100.81
1962.00,100.82
1961.00,100.82
1960.00,100.82
1959.00,100.83
1958.00,100.83
1957.00,100.83
1956.00,100.82
1955.00,100.82
1954.00,100.82
1953.00,100.82
1952.00,100.82
1951.00,100.82
1950.00,100.82
1949.00,100.82
1948.00,100.81
1947.00,100.80
1946.00,100.80
1945.00,100.81
1944.00,100.82
1943.00,100.82
1942.00,100.83
1941.00,100.83
1940.00,100.83
1939.00,100.83
1938.00,100.83
1937.00,100.83
1936.00,100.82
1935.00,100.80
1934.00,100.79
1933.00,100.80
1932.00,100.81
1931.00,100.82
1930.00,100.83
1929.00,100.83
1928.00,100.84
1927.00,100.83
1926.00,100.81
1925.00,100.81
1924.00,100.80
1923.00,100.79
1922.00,100.79
1921.00,100.81
1920.00,100.84
1919.00,100.85
1918.00,100.84
1917.00,100.83
1916.00,100.82
1915.00,100.80
1914.00,100.79
1913.00,100.79
1912.00,100.79
1911.00,100.77
1910.00,100.76
1909.00,100.78
1908.00,100.80
1907.00,100.80
1906.00,100.80
1905.00,100.81
1904.00,100.83
1903.00,100.82
1902.00,100.81
1901.00,100.82
1900.00,100.84
1899.00,100.83
1898.00,100.81
1897.00,100.82
1896.00,100.82
1895.00,100.82
1894.00,100.81
1893.00,100.84
1892.00,100.87
1891.00,100.87
1890.00,100.86
1889.00,100.88
1888.00,100.88
1887.00,100.85
1886.00,100.82
1885.00,100.82
1884.00,100.84
1883.00,100.83
1882.00,100.82
1881.00,100.83
1880.00,100.85
1879.00,100.84
1878.00,100.82
1877.00,100.82
1876.00,100.84
1875.00,100.84
1874.00,100.82
1873.00,100.84
1872.00,100.87
1871.00,100.89
1870.00,100.87
1869.00,100.85
1868.00,100.84
1867.00,100.81
1866.00,100.79
1865.00,100.82
1864.00,100.85
1863.00,100.85
1862.00,100.83
1861.00,100.84
1860.00,100.86
1859.00,100.85
1858.00,100.83
1857.00,100.84
1856.00,100.87
1855.00,100.86
1854.00,100.84
1853.00,100.84
1852.00,100.84
1851.00,100.82
1850.00,100.80
1849.00,100.80
1848.00,100.81
1847.00,100.79
1846.00,100.78
1845.00,100.80
1844.00,100.82
1843.00,100.82
1842.00,100.82
1841.00,100.83
1840.00,100.83
1839.00,100.81
1838.00,100.80
1837.00,100.80
1836.00,100.82
1835.00,100.84
1834.00,100.85
1833.00,100.88
1832.00,100.90
1831.00,100.91
1830.00,100.90
1829.00,100.89
1828.00,100.89
1827.00,100.88
1826.00,100.86
1825.00,100.86
1824.00,100.87
1823.00,100.88
1822.00,100.86
1821.00,100.85
1820.00,100.87
1819.00,100.89
1818.00,100.87
1817.00,100.87
1816.00,100.89
1815.00,100.89
1814.00,100.84
1813.00,100.79
1812.00,100.79
1811.00,100.79
1810.00,100.78
1809.00,100.79
1808.00,100.84
1807.00,100.86
1806.00,100.84
1805.00,100.85
1804.00,100.89
1803.00,100.89
1802.00,100.85
1801.00,100.81
1800.00,100.82
1799.00,100.80
1798.00,100.77
1797.00,100.76
1796.00,100.79
1795.00,100.79
1794.00,100.79
1793.00,100.82
1792.00,100.87
1791.00,100.89
1790.00,100.86
1789.00,100.84
1788.00,100.84
1787.00,100.84
1786.00,100.82
1785.00,100.83
1784.00,100.84
1783.00,100.82
1782.00,100.77
1781.00,100.73
1780.00,100.75
1779.00,100.79
1778.00,100.81
1777.00,100.81
1776.00,100.81
1775.00,100.82
1774.00,100.84
1773.00,100.83
1772.00,100.83
1771.00,100.86
1770.00,100.88
1769.00,100.87
1768.00,100.87
1767.00,100.88
1766.00,100.87
1765.00,100.85
1764.00,100.88
1763.00,100.94
1762.00,100.96
1761.00,100.93
1760.00,100.90
1759.00,100.91
1758.00,100.92
1757.00,100.91
1756.00,100.88
1755.00,100.85
1754.00,100.77
1753.00,100.65
1752.00,100.58
1751.00,100.58
1750.00,100.59
1749.00,100.57
1748.00,100.58
1747.00,100.64
1746.00,100.68
1745.00,100.68
1744.00,100.69
1743.00,100.75
1742.00,100.80
1741.00,100.79
1740.00,100.80
1739.00,100.82
1738.00,100.79
1737.00,100.67
1736.00,100.56
1735.00,100.55
1734.00,100.57
1733.00,100.56
1732.00,100.60
1731.00,100.66
1730.00,100.73
1729.00,100.80
1728.00,100.84
1727.00,100.85
1726.00,100.84
1725.00,100.83
1724.00,100.84
1723.00,100.83
1722.00,100.82
1721.00,100.82
1720.00,100.89
1719.00,100.94
1718.00,100.93
1717.00,100.92
1716.00,100.92
1715.00,100.86
1714.00,100.78
1713.00,100.79
1712.00,100.84
1711.00,100.82
1710.00,100.77
1709.00,100.75
1708.00,100.79
1707.00,100.79
1706.00,100.80
1705.00,100.88
1704.00,100.91
1703.00,100.75
1702.00,100.54
1701.00,100.54
1700.00,100.66
1699.00,100.71
1698.00,100.72
1697.00,100.78
1696.00,100.84
1695.00,100.82
1694.00,100.78
1693.00,100.80
1692.00,100.82
1691.00,100.80
1690.00,100.78
1689.00,100.79
1688.00,100.82
1687.00,100.88
1686.00,101.00
1685.00,101.11
1684.00,101.06
1683.00,100.95
1682.00,100.88
1681.00,100.84
1680.00,100.80
1679.00,100.81
1678.00,100.83
1677.00,100.82
1676.00,100.80
1675.00,100.82
1674.00,100.87
1673.00,100.86
1672.00,100.78
1671.00,100.71
1670.00,100.72
1669.00,100.77
1668.00,100.80
1667.00,100.85
1666.00,100.90
1665.00,100.91
1664.00,100.86
1663.00,100.84
1662.00,100.87
1661.00,100.89
1660.00,100.86
1659.00,100.87
1658.00,100.93
1657.00,100.93
1656.00,100.86
1655.00,100.89
1654.00,101.05
1653.00,101.02
1652.00,100.80
1651.00,100.74
1650.00,100.81
1649.00,100.79
1648.00,100.75
1647.00,100.77
1646.00,100.82
1645.00,100.82
1644.00,100.82
1643.00,100.82
1642.00,100.81
1641.00,100.80
1640.00,100.79
1639.00,100.75
1638.00,100.69
1637.00,100.65
1636.00,100.67
1635.00,100.74
1634.00,100.79
1633.00,100.85
1632.00,100.88
1631.00,100.84
1630.00,100.79
1629.00,100.78
1628.00,100.79
1627.00,100.81
1626.00,100.83
1625.00,100.82
1624.00,100.76
1623.00,100.74
1622.00,100.81
1621.00,100.88
1620.00,100.85
1619.00,100.76
1618.00,100.71
1617.00,100.70
1616.00,100.69
1615.00,100.73
1614.00,100.84
1613.00,100.90
1612.00,100.84
1611.00,100.77
1610.00,100.77
1609.00,100.79
1608.00,100.78
1607.00,100.78
1606.00,100.83
1605.00,100.84
1604.00,100.80
1603.00,100.78
1602.00,100.82
1601.00,100.86
1600.00,100.85
1599.00,100.85
1598.00,100.87
1597.00,100.88
1596.00,100.84
1595.00,100.81
1594.00,100.85
1593.00,100.88
1592.00,100.86
1591.00,100.84
1590.00,100.86
1589.00,100.89
1588.00,100.88
1587.00,100.86
1586.00,100.89
1585.00,100.92
1584.00,100.88
1583.00,100.86
1582.00,100.91
1581.00,100.95
1580.00,100.92
1579.00,100.86
1578.00,100.82
1577.00,100.78
1576.00,100.73
1575.00,100.74
1574.00,100.85
1573.00,100.92
1572.00,100.87
1571.00,100.81
1570.00,100.82
1569.00,100.82
1568.00,100.77
1567.00,100.74
1566.00,100.77
1565.00,100.81
1564.00,100.81
1563.00,100.83
1562.00,100.88
1561.00,101.03
1560.00,101.13
1559.00,101.08
1558.00,100.98
1557.00,100.89
1556.00,100.86
1555.00,100.87
1554.00,100.88
1553.00,100.83
1552.00,100.78
1551.00,100.77
1550.00,100.80
1549.00,100.83
1548.00,100.82
1547.00,100.83
1546.00,100.86
1545.00,100.85
1544.00,100.78
1543.00,100.73
1542.00,100.75
1541.00,100.84
1540.00,100.87
1539.00,100.77
1538.00,100.71
1537.00,100.77
1536.00,100.83
1535.00,100.83
1534.00,100.82
1533.00,100.84
1532.00,100.86
1531.00,100.84
1530.00,100.80
1529.00,100.80
1528.00,100.85
1527.00,100.88
1526.00,100.89
1525.00,100.87
1524.00,100.85
1523.00,100.87
1522.00,100.92
1521.00,100.97
1520.00,100.96
1519.00,100.90
1518.00,100.82
1517.00,100.78
1516.00,100.82
1515.00,100.87
1514.00,100.87
1513.00,100.85
1512.00,100.87
1511.00,100.87
1510.00,100.78
1509.00,100.67
1508.00,100.67
1507.00,100.79
1506.00,100.81
1505.00,100.70
1504.00,100.71
1503.00,100.78
1502.00,100.79
1501.00,100.78
1500.00,100.82
1499.00,100.87
1498.00,100.85
1497.00,100.80
1496.00,100.79
1495.00,100.77
1494.00,100.72
1493.00,100.70
1492.00,100.72
1491.00,100.72
1490.00,100.69
1489.00,100.69
1488.00,100.75
1487.00,100.76
1486.00,100.75
1485.00,100.77
1484.00,100.77
1483.00,100.74
1482.00,100.70
1481.00,100.71
1480.00,100.74
1479.00,100.75
1478.00,100.73
1477.00,100.75
1476.00,100.79
1475.00,100.79
1474.00,100.76
1473.00,100.73
1472.00,100.73
1471.00,100.72
1470.00,100.71
1469.00,100.73
1468.00,100.75
1467.00,100.74
1466.00,100.71
1465.00,100.69
1464.00,100.70
1463.00,100.73
1462.00,100.72
1461.00,100.69
1460.00,100.64
1459.00,100.58
1458.00,100.53
1457.00,100.46
1456.00,100.43
1455.00,100.51
1454.00,100.63
1453.00,100.69
1452.00,100.71
1451.00,100.75
1450.00,100.76
1449.00,100.75
1448.00,100.76
1447.00,100.80
1446.00,100.82
1445.00,100.78
1444.00,100.76
1443.00,100.80
1442.00,100.82
1441.00,100.78
1440.00,100.73
1439.00,100.71
1438.00,100.69
1437.00,100.64
1436.00,100.63
1435.00,100.70
1434.00,100.75
1433.00,100.73
1432.00,100.72
1431.00,100.76
1430.00,100.78
1429.00,100.77
1428.00,100.75
1427.00,100.77
1426.00,100.75
1425.00,100.67
1424.00,100.62
1423.00,100.67
1422.00,100.71
1421.00,100.66
1420.00,100.62
1419.00,100.67
1418.00,100.71
1417.00,100.71
1416.00,100.72
1415.00,100.77
1414.00,100.80
1413.00,100.76
1412.00,100.74
1411.00,100.79
1410.00,100.83
1409.00,100.81
1408.00,100.79
1407.00,100.80
1406.00,100.82
1405.00,100.80
1404.00,100.78
1403.00,100.80
1402.00,100.83
1401.00,100.80
1400.00,100.77
1399.00,100.78
1398.00,100.80
1397.00,100.82
1396.00,100.84
1395.00,100.91
1394.00,100.94
1393.00,100.88
1392.00,100.80
1391.00,100.80
1390.00,100.85
1389.00,100.88
1388.00,100.88
1387.00,100.86
1386.00,100.85
1385.00,100.83
1384.00,100.81
1383.00,100.81
1382.00,100.82
1381.00,100.81
1380.00,100.80
1379.00,100.80
1378.00,100.80
1377.00,100.78
1376.00,100.75
1375.00,100.75
1374.00,100.80
1373.00,100.84
1372.00,100.84
1371.00,100.82
1370.00,100.82
1369.00,100.82
1368.00,100.82
1367.00,100.82
1366.00,100.84
1365.00,100.86
1364.00,100.87
1363.00,100.89
1362.00,100.92
1361.00,100.92
1360.00,100.89
1359.00,100.86
1358.00,100.84
1357.00,100.83
1356.00,100.83
1355.00,100.83
1354.00,100.84
1353.00,100.84
1352.00,100.83
1351.00,100.80
1350.00,100.80
1349.00,100.79
1348.00,100.79
1347.00,100.81
1346.00,100.83
1345.00,100.85
1344.00,100.85
1343.00,100.83
1342.00,100.81
1341.00,100.77
1340.00,100.75
1339.00,100.77
1338.00,100.81
1337.00,100.83
1336.00,100.83
1335.00,100.83
1334.00,100.82
1333.00,100.82
1332.00,100.81
1331.00,100.81
1330.00,100.82
1329.00,100.82
1328.00,100.82
1327.00,100.82
1326.00,100.83
1325.00,100.82
1324.00,100.81
1323.00,100.80
1322.00,100.80
1321.00,100.78
1320.00,100.76
1319.00,100.76
1318.00,100.78
1317.00,100.80
1316.00,100.81
1315.00,100.81
1314.00,100.81
1313.00,100.80
1312.00,100.79
1311.00,100.79
1310.00,100.80
1309.00,100.80
1308.00,100.79
1307.00,100.79
1306.00,100.80
1305.00,100.80
1304.00,100.78
1303.00,100.78
1302.00,100.80
1301.00,100.80
1300.00,100.80
1299.00,100.81
1298.00,100.81
1297.00,100.80
1296.00,100.78
1295.00,100.78
1294.00,100.79
1293.00,100.78
1292.00,100.78
1291.00,100.78
1290.00,100.79
1289.00,100.78
1288.00,100.77
1287.00,100.78
1286.00,100.79
1285.00,100.78
1284.00,100.77
1283.00,100.77
1282.00,100.78
1281.00,100.79
1280.00,100.79
1279.00,100.80
1278.00,100.80
1277.00,100.79
1276.00,100.78
1275.00,100.77
1274.00,100.77
1273.00,100.76
1272.00,100.75
1271.00,100.75
1270.00,100.75
1269.00,100.76
1268.00,100.76
1267.00,100.76
1266.00,100.78
1265.00,100.78
1264.00,100.78
1263.00,100.78
1262.00,100.79
1261.00,100.78
1260.00,100.77
1259.00,100.76
1258.00,100.76
1257.00,100.76
1256.00,100.76
1255.00,100.77
1254.00,100.78
1253.00,100.78
1252.00,100.76
1251.00,100.76
1250.00,100.76
1249.00,100.75
1248.00,100.73
1247.00,100.73
1246.00,100.73
1245.00,100.73
1244.00,100.72
1243.00,100.71
1242.00,100.72
1241.00,100.72
1240.00,100.73
1239.00,100.74
1238.00,100.74
1237.00,100.73
1236.00,100.71
1235.00,100.72
1234.00,100.73
1233.00,100.73
1232.00,100.72
1231.00,100.72
1230.00,100.73
1229.00,100.72
1228.00,100.70
1227.00,100.70
1226.00,100.70
1225.00,100.70
1224.00,100.70
1223.00,100.70
1222.00,100.70
1221.00,100.69
1220.00,100.68
1219.00,100.68
1218.00,100.68
1217.00,100.68
1216.00,100.67
1215.00,100.67
1214.00,100.67
1213.00,100.65
1212.00,100.62
1211.00,100.61
1210.00,100.61
1209.00,100.61
1208.00,100.61
1207.00,100.62
1206.00,100.63
1205.00,100.63
1204.00,100.62
1203.00,100.61
1202.00,100.61
1201.00,100.60
1200.00,100.58
1199.00,100.58
1198.00,100.58
1197.00,100.57
1196.00,100.56
1195.00,100.58
1194.00,100.59
1193.00,100.60
1192.00,100.59
1191.00,100.59
1190.00,100.59
1189.00,100.58
1188.00,100.56
1187.00,100.57
1186.00,100.59
1185.00,100.59
1184.00,100.58
1183.00,100.57
1182.00,100.56
1181.00,100.55
1180.00,100.54
1179.00,100.54
1178.00,100.54
1177.00,100.54
1176.00,100.53
1175.00,100.54
1174.00,100.56
1173.00,100.56
1172.00,100.54
1171.00,100.53
1170.00,100.53
1169.00,100.52
1168.00,100.51
1167.00,100.50
1166.00,100.51
1165.00,100.50
1164.00,100.50
1163.00,100.50
1162.00,100.51
1161.00,100.51
1160.00,100.51
1159.00,100.51
1158.00,100.51
1157.00,100.49
1156.00,100.48
1155.00,100.48
1154.00,100.50
1153.00,100.51
1152.00,100.50
1151.00,100.51
1150.00,100.51
1149.00,100.49
1148.00,100.47
1147.00,100.46
1146.00,100.45
1145.00,100.43
1144.00,100.42
1143.00,100.42
1142.00,100.44
1141.00,100.45
1140.00,100.44
1139.00,100.44
1138.00,100.44
1137.00,100.41
1136.00,100.39
1135.00,100.38
1134.00,100.39
1133.00,100.39
1132.00,100.37
1131.00,100.37
1130.00,100.38
1129.00,100.38
1128.00,100.37
1127.00,100.39
1126.00,100.42
1125.00,100.43
1124.00,100.42
1123.00,100.42
1122.00,100.42
1121.00,100.39
1120.00,100.37
1119.00,100.36
1118.00,100.36
1117.00,100.35
1116.00,100.33
1115.00,100.32
1114.00,100.32
1113.00,100.32
1112.00,100.31
1111.00,100.30
1110.00,100.29
1109.00,100.26
1108.00,100.24
1107.00,100.24
1106.00,100.26
1105.00,100.26
1104.00,100.25
1103.00,100.26
1102.00,100.27
1101.00,100.26
1100.00,100.24
1099.00,100.22
1098.00,100.21
1097.00,100.18
1096.00,100.16
1095.00,100.16
1094.00,100.18
1093.00,100.18
1092.00,100.16
1091.00,100.16
1090.00,100.16
1089.00,100.13
1088.00,100.12
1087.00,100.14
1086.00,100.16
1085.00,100.15
1084.00,100.09
1083.00,100.04
1082.00,100.02
1081.00,100.00
1080.00,99.99
1079.00,100.00
1078.00,100.03
1077.00,100.05
1076.00,100.06
1075.00,100.07
1074.00,100.05
1073.00,100.00
1072.00,99.94
1071.00,99.94
1070.00,99.95
1069.00,99.95
1068.00,99.93
1067.00,99.93
1066.00,99.95
1065.00,99.94
1064.00,99.92
1063.00,99.92
1062.00,99.91
1061.00,99.88
1060.00,99.85
1059.00,99.86
1058.00,99.88
1057.00,99.86
1056.00,99.82
1055.00,99.83
1054.00,99.86
1053.00,99.86
1052.00,99.82
1051.00,99.79
1050.00,99.78
1049.00,99.76
1048.00,99.75
1047.00,99.76
1046.00,99.78
1045.00,99.76
1044.00,99.73
1043.00,99.73
1042.00,99.75
1041.00,99.74
1040.00,99.71
1039.00,99.71
1038.00,99.72
1037.00,99.70
1036.00,99.67
1035.00,99.67
1034.00,99.67
1033.00,99.63
1032.00,99.60
1031.00,99.61
1030.00,99.63
1029.00,99.59
1028.00,99.53
1027.00,99.52
1026.00,99.53
1025.00,99.52
1024.00,99.47
1023.00,99.46
1022.00,99.45
1021.00,99.40
1020.00,99.33
1019.00,99.31
1018.00,99.34
1017.00,99.37
1016.00,99.40
1015.00,99.46
1014.00,99.48
1013.00,99.44
1012.00,99.37
1011.00,99.35
1010.00,99.35
1009.00,99.29
1008.00,99.22
1007.00,99.21
1006.00,99.24
1005.00,99.25
1004.00,99.25
1003.00,99.27
1002.00,99.28
1001.00,99.20
1000.00,99.09
999.00,99.03
998.00,99.01
997.00,98.97
996.00,98.94
995.00,98.98
994.00,99.03
993.00,99.01
992.00,98.97
991.00,98.97
990.00,98.99
989.00,98.95
988.00,98.90
987.00,98.93
986.00,98.97
985.00,98.89
984.00,98.73
983.00,98.64
982.00,98.63
981.00,98.60
980.00,98.57
979.00,98.63
978.00,98.72
977.00,98.72
976.00,98.68
975.00,98.69
974.00,98.70
973.00,98.60
972.00,98.49
971.00,98.53
970.00,98.67
969.00,98.71
968.00,98.62
967.00,98.55
966.00,98.51
965.00,98.40
964.00,98.28
963.00,98.28
962.00,98.29
961.00,98.14
960.00,97.93
959.00,97.91
958.00,98.04
957.00,98.08
956.00,98.06
955.00,98.18
954.00,98.39
953.00,98.40
952.00,98.21
951.00,98.05
950.00,98.02
949.00,97.98
948.00,97.96
947.00,98.14
946.00,98.38
945.00,98.37
944.00,98.10
943.00,97.82
942.00,97.52
941.00,97.11
940.00,96.83
939.00,97.02
938.00,97.44
937.00,97.54
936.00,97.30
935.00,97.05
934.00,96.76
933.00,96.23
932.00,95.81
931.00,96.03
930.00,96.61
929.00,96.84
928.00,96.75
927.00,96.90
926.00,97.22
925.00,97.13
924.00,96.71
923.00,96.61
922.00,96.76
921.00,96.43
920.00,95.76
919.00,95.64
918.00,96.06
917.00,96.10
916.00,95.56
915.00,95.35
914.00,95.98
913.00,97.08
912.00,98.35
911.00,99.29
910.00,98.79
909.00,96.15
908.00,93.32
907.00,93.03
906.00,94.70
905.00,95.54
904.00,94.36
903.00,92.61
902.00,91.67
901.00,91.34
900.00,92.27
899.00,94.90
898.00,97.50
897.00,97.96
896.00,97.30
895.00,98.57
894.00,101.57
893.00,103.55
892.00,103.56
891.00,103.55
890.00,104.91
889.00,105.47
888.00,103.16
887.00,96.86
886.00,90.52
885.00,85.55
884.00,82.33
883.00,84.86
882.00,93.12
881.00,103.23
880.00,113.58
879.00,118.30
878.00,119.47
877.00,129.61
876.00,135.83
875.00,115.36
874.00,97.08
873.00,88.64
872.00,96.36
871.00,122.24
870.00,158.38
869.00,230.12
868.00,294.22
867.00,259.19
866.00,197.08
865.00,198.98
864.00,215.90
863.00,202.35
862.00,170.76
861.00,186.80
860.00,250.66
859.00,244.61
858.00,153.87
857.00,162.06
856.00,157.93
855.00,141.11
854.00,147.67
853.00,181.53
852.00,209.74
851.00,242.97
850.00,277.18
849.00,274.38
848.00,237.70
847.00,220.63
846.00,187.63
845.00,157.75
844.00,152.86
843.00,180.92
842.00,269.36
841.00,255.05
840.00,226.75
839.00,206.63
838.00,168.62
837.00,228.91
836.00,247.41
835.00,237.81
834.00,207.55
833.00,185.73
832.00,211.71
831.00,454.77
830.00,1323.13
829.00,1268.15
828.00,310.19
827.00,236.36
826.00,271.07
825.00,232.16
824.00,236.82
823.00,284.59
822.00,294.79
821.00,189.81
820.00,157.96
819.00,152.65
818.00,155.75
817.00,155.26
816.00,165.50
815.00,177.51
814.00,152.39
813.00,149.43
812.00,154.50
811.00,173.75
810.00,223.04
809.00,211.56
808.00,188.60
807.00,200.06
806.00,251.32
805.00,255.66
804.00,220.07
803.00,246.69
802.00,269.88
801.00,209.03
800.00,169.91
799.00,179.00
798.00,207.99
797.00,259.86
796.00,314.03
795.00,510.99
794.00,745.67
793.00,360.48
792.00,215.09
791.00,204.03
790.00,181.52
789.00,160.75
788.00,160.14
787.00,172.35
786.00,202.36
785.00,257.57
784.00,415.66
783.00,705.35
782.00,410.38
781.00,203.61
780.00,134.71
779.00,158.33
778.00,168.25
777.00,324.96
776.00,321.76
775.00,869.90
774.00,2591.85
773.00,816.91
772.00,347.55
771.00,722.74
770.00,1193.42
769.00,571.53
768.00,240.34
767.00,263.86
766.00,211.49
765.00,194.97
764.00,172.78
763.00,221.00
762.00,350.10
761.00,367.14
760.00,303.19
759.00,321.39
758.00,337.92
757.00,276.09
756.00,247.67
755.00,295.91
754.00,395.49
753.00,337.70
752.00,286.97
751.00,323.74
750.00,337.71
749.00,248.75
748.00,207.04
747.00,165.33
746.00,118.56
745.00,110.91
744.00,153.75
743.00,100.81
742.00,274.84
741.00,379.20
740.00,609.09
739.00,1929.30
738.00,948.12
737.00,1519.49
736.00,447.20
735.00,223.43
734.00,296.05
733.00,185.41
732.00,207.85
731.00,244.35
730.00,504.60
729.00,444.14
728.00,300.88
727.00,365.52
726.00,497.67
725.00,380.07
724.00,293.53
723.00,453.15
722.00,1268.40
721.00,1023.30
720.00,580.81
719.00,610.00
718.00,639.99
717.00,528.21
716.00,308.94
715.00,352.74
714.00,378.57
713.00,230.51
712.00,153.90
711.00,116.56
710.00,89.82
709.00,105.96
708.00,148.70
707.00,192.09
706.00,207.55
705.00,200.54
704.00,192.91
703.00,217.92
702.00,267.00
701.00,244.27
700.00,210.79
699.00,245.47
698.00,495.58
697.00,728.85
696.00,687.75
695.00,551.52
694.00,294.62
693.00,263.26
692.00,266.00
691.00,329.12
690.00,508.39
689.00,447.30
688.00,380.48
687.00,404.02
686.00,408.12
685.00,317.66
684.00,291.19
683.00,315.69
682.00,263.38
681.00,256.86
680.00,229.58
679.00,187.77
678.00,167.39
677.00,158.18
676.00,169.29
675.00,194.53
674.00,249.08
673.00,288.80
672.00,295.39
671.00,317.82
670.00,384.05
669.00,511.28
668.00,532.31
667.00,428.94
666.00,410.69
665.00,352.29
664.00,321.23
663.00,399.46
662.00,419.67
661.00,225.36
660.00,155.71
659.00,157.27
658.00,174.28
657.00,229.49
656.00,231.44
655.00,375.96
654.00,1120.24
653.00,818.10
652.00,535.38
651.00,551.65
650.00,497.62
649.00,266.14
648.00,195.53
647.00,194.73
646.00,190.54
645.00,174.00
644.00,158.25
643.00,140.94
642.00,116.71
641.00,116.35
640.00,122.98
639.00,146.30
638.00,298.96
637.00,367.08
636.00,288.53
635.00,241.10
634.00,178.98
633.00,158.01
632.00,155.33
631.00,252.90
630.00,829.95
629.00,713.35
628.00,447.84
627.00,515.75
626.00,495.35
625.00,277.45
624.00,183.59
623.00,155.76
622.00,145.45
621.00,140.38
620.00,146.13
619.00,157.43
618.00,172.54
617.00,180.96
616.00,174.44
615.00,185.33
614.00,205.82
613.00,209.85
612.00,190.96
611.00,256.70
610.00,585.59
609.00,316.19
608.00,187.40
607.00,158.32
606.00,123.74
605.00,127.68
604.00,143.29
603.00,181.66
602.00,235.62
601.00,202.43
600.00,174.89
599.00,186.75
598.00,210.21
597.00,198.38
596.00,185.19
595.00,177.68
594.00,162.96
593.00,180.89
592.00,220.48
591.00,334.91
590.00,534.09
589.00,411.17
588.00,203.17
587.00,155.95
586.00,142.21
585.00,160.67
584.00,177.60
583.00,207.49
582.00,243.81
581.00,220.73
580.00,230.60
579.00,329.02
578.00,413.14
577.00,391.23
576.00,315.68
575.00,383.97
574.00,450.21
573.00,243.35
572.00,166.59
571.00,148.37
570.00,120.07
569.00,120.25
568.00,134.44
567.00,138.48
566.00,119.05
565.00,129.53
564.00,139.38
563.00,159.07
562.00,312.08
561.00,353.14
560.00,291.34
559.00,288.87
558.00,208.64
557.00,195.86
556.00,190.75
555.00,194.83
554.00,217.55
553.00,213.72
552.00,218.44
551.00,238.37
550.00,234.58
549.00,201.84
548.00,176.36
547.00,163.49
546.00,194.27
545.00,323.83
544.00,400.64
543.00,658.81
542.00,803.43
541.00,514.54
540.00,390.38
539.00,1008.20
538.00,1829.51
537.00,769.13
536.00,301.94
535.00,263.38
534.00,196.58
533.00,147.29
532.00,138.41
531.00,172.07
530.00,286.94
529.00,316.88
528.00,338.42
527.00,476.47
526.00,287.62
525.00,466.92
524.00,556.88
523.00,503.26
522.00,400.98
521.00,224.53
520.00,176.58
519.00,150.43
518.00,136.74
517.00,180.58
516.00,232.19
515.00,270.96
514.00,191.07
513.00,135.23
512.00,123.38
511.00,139.09
510.00,219.43
509.00,245.51
508.00,248.29
507.00,277.73
506.00,270.34
505.00,217.75
504.00,203.85
503.00,314.63
502.00,750.73
501.00,453.79
500.00,274.97
499.00,239.25
498.00,218.43
497.00,195.97
496.00,191.66
495.00,243.58
494.00,370.47
493.00,325.26
492.00,271.12
491.00,347.12
490.00,484.34
489.00,493.30
488.00,404.30
487.00,539.52
486.00,930.51
485.00,665.75
484.00,442.81
483.00,452.83
482.00,252.02
481.00,265.43
480.00,368.14
479.00,467.08
478.00,384.57
477.00,212.77
476.00,179.89
475.00,169.36
474.00,225.78
473.00,278.95
472.00,502.36
471.00,1840.41
470.00,322.76
469.00,520.45
468.00,2097.63
467.00,736.83
466.00,306.34
465.00,209.07
464.00,181.78
463.00,207.06
462.00,214.69
461.00,198.93
460.00,181.18
459.00,180.35
458.00,164.16
457.00,146.51
456.00,138.63
455.00,145.27
454.00,239.89
453.00,227.64
452.00,202.48
451.00,219.17
450.00,236.79
