Data from Sun outside no cover_USB4F034991__0__09-48-55-005.txt Node

Date: Tue Sep 23 09:48:55 EDT 2025
User: brett
Spectrometer: USB4F03499
Trigger mode: 4
Integration Time (sec): 5.000000E-1
Scans to average: 1
Electric dark correction enabled: true
Nonlinearity correction enabled: true
Boxcar width: 0
XAxis mode: Wavelengths
Number of Pixels in Spectrum: 3648
>>>>>Begin Spectral Data<<<<<
0	-9620.5226
0.225	-9620.5226
0.449	-9620.5226
0.674	-9567.54143
0.898	-9583.82023
1.123	-8132.24449
1.347	-7925.97942
1.572	-8034.1457
1.796	-7736.97604
2.021	-7673.38029
2.245	-7270.48097
2.469	-7297.89171
2.694	-6733.28099
2.918	-6123.80774
3.143	-5450.8509
3.367	-3800.31358
3.591	58356.23994
3.815	58356.23994
4.04	58356.23994
4.264	58356.23994
4.488	58356.23994
4.712	58356.23994
4.936	58356.23994
5.161	58356.23994
5.385	58356.23994
5.609	58356.23994
5.833	58356.23994
6.057	58356.23994
6.281	58356.23994
6.505	58356.23994
6.729	58356.23994
6.953	58356.23994
7.177	58356.23994
7.401	58356.23994
7.625	58356.23994
7.849	58356.23994
8.073	58356.23994
8.297	58356.23994
8.521	58356.23994
8.744	58356.23994
8.968	58356.23994
9.192	58356.23994
9.416	58356.23994
9.64	58356.23994
9.863	58356.23994
10.087	58356.23994
10.311	58356.23994
10.535	58356.23994
10.758	58356.23994
10.982	58356.23994
11.205	58356.23994
11.429	58356.23994
11.653	58356.23994
11.876	58356.23994
12.1	58356.23994
12.323	58356.23994
12.547	58356.23994
12.77	58356.23994
12.994	58356.23994
13.217	58356.23994
13.441	58356.23994
13.664	58356.23994
13.887	58356.23994
14.111	58356.23994
14.334	58356.23994
14.557	58356.23994
14.781	58356.23994
15.004	58356.23994
15.227	58356.23994
15.451	58356.23994
15.674	58356.23994
15.897	58356.23994
16.12	58356.23994
16.343	58356.23994
16.567	58356.23994
16.79	58356.23994
17.013	58356.23994
17.236	58356.23994
17.459	58356.23994
17.682	58356.23994
17.905	58356.23994
18.128	58356.23994
18.351	58356.23994
18.574	58356.23994
18.797	58356.23994
19.02	58356.23994
19.243	58356.23994
19.466	58356.23994
19.689	58356.23994
19.911	58356.23994
20.134	58356.23994
20.357	58356.23994
20.58	58356.23994
20.803	58356.23994
21.025	58356.23994
21.248	58356.23994
21.471	58356.23994
21.694	58356.23994
21.916	58356.23994
22.139	58356.23994
22.362	58356.23994
22.584	58356.23994
22.807	58356.23994
23.029	58356.23994
23.252	58356.23994
23.475	58356.23994
23.697	58356.23994
23.92	58356.23994
24.142	58356.23994
24.365	58356.23994
24.587	58356.23994
24.809	58356.23994
25.032	58356.23994
25.254	58356.23994
25.477	58356.23994
25.699	58356.23994
25.921	58356.23994
26.144	58356.23994
26.366	58356.23994
26.588	58356.23994
26.81	58356.23994
27.033	58356.23994
27.255	58356.23994
27.477	58356.23994
27.699	58356.23994
27.921	58356.23994
28.144	58356.23994
28.366	58356.23994
28.588	58356.23994
28.81	58356.23994
29.032	58356.23994
29.254	58356.23994
29.476	58356.23994
29.698	58356.23994
29.92	58356.23994
30.142	58356.23994
30.364	58356.23994
30.586	58356.23994
30.808	58356.23994
31.029	58356.23994
31.251	58356.23994
31.473	58356.23994
31.695	58356.23994
31.917	58356.23994
32.139	58356.23994
32.36	58356.23994
32.582	58356.23994
32.804	58356.23994
33.026	58356.23994
33.247	58356.23994
33.469	58356.23994
33.691	58356.23994
33.912	58356.23994
34.134	58356.23994
34.355	58356.23994
34.577	58356.23994
34.798	58356.23994
35.02	58356.23994
35.242	58356.23994
35.463	58356.23994
35.684	58356.23994
35.906	58356.23994
36.127	58356.23994
36.349	58356.23994
36.57	58356.23994
36.792	58356.23994
37.013	58356.23994
37.234	58356.23994
37.456	58356.23994
37.677	58356.23994
37.898	58356.23994
38.119	58356.23994
38.341	58356.23994
38.562	58356.23994
38.783	58356.23994
39.004	58356.23994
39.225	58356.23994
39.447	58356.23994
39.668	58356.23994
39.889	58356.23994
40.11	58356.23994
40.331	58356.23994
40.552	58356.23994
40.773	58356.23994
40.994	58356.23994
41.215	58356.23994
41.436	58356.23994
41.657	58356.23994
41.878	58356.23994
42.099	58356.23994
42.32	58356.23994
42.54	58356.23994
42.761	58356.23994
42.982	58356.23994
43.203	58356.23994
43.424	58356.23994
43.645	58356.23994
43.865	58356.23994
44.086	58356.23994
44.307	58356.23994
44.527	58356.23994
44.748	58356.23994
44.969	58356.23994
45.189	58356.23994
45.41	58356.23994
45.631	58356.23994
45.851	58356.23994
46.072	58356.23994
46.292	58356.23994
46.513	58356.23994
46.733	58356.23994
46.954	58356.23994
47.174	58356.23994
47.395	58356.23994
47.615	58356.23994
47.836	58356.23994
48.056	58356.23994
48.276	58356.23994
48.497	58356.23994
48.717	58356.23994
48.937	58356.23994
49.158	58356.23994
49.378	58356.23994
49.598	58356.23994
49.818	58356.23994
50.038	58356.23994
50.259	58356.23994
50.479	58356.23994
50.699	58356.23994
50.919	58356.23994
51.139	58356.23994
51.359	58356.23994
51.579	58356.23994
51.799	58356.23994
52.02	58356.23994
52.24	58356.23994
52.46	58356.23994
52.68	58356.23994
52.899	58356.23994
53.119	58356.23994
53.339	58356.23994
53.559	58356.23994
53.779	58356.23994
53.999	58356.23994
54.219	58356.23994
54.439	58356.23994
54.658	58356.23994
54.878	58356.23994
55.098	58356.23994
55.318	58356.23994
55.538	58356.23994
55.757	58356.23994
55.977	58356.23994
56.197	58356.23994
56.416	58356.23994
56.636	58356.23994
56.855	58356.23994
57.075	58356.23994
57.295	58356.23994
57.514	58356.23994
57.734	58356.23994
57.953	58356.23994
58.173	58356.23994
58.392	58356.23994
58.612	58356.23994
58.831	58356.23994
59.051	58356.23994
59.27	58356.23994
59.489	58356.23994
59.709	58356.23994
59.928	58356.23994
60.147	58356.23994
60.367	58356.23994
60.586	58356.23994
60.805	58356.23994
61.024	58356.23994
61.244	58356.23994
61.463	58356.23994
61.682	58356.23994
61.901	58356.23994
62.12	58356.23994
62.34	58356.23994
62.559	58356.23994
62.778	58356.23994
62.997	58356.23994
63.216	58356.23994
63.435	58356.23994
63.654	58356.23994
63.873	58356.23994
64.092	58356.23994
64.311	58356.23994
64.53	58356.23994
64.749	58356.23994
64.968	58356.23994
65.187	58356.23994
65.405	58356.23994
65.624	58356.23994
65.843	58356.23994
66.062	58356.23994
66.281	58356.23994
66.499	58356.23994
66.718	58356.23994
66.937	58356.23994
67.156	58356.23994
67.374	58356.23994
67.593	58356.23994
67.812	58356.23994
68.03	58356.23994
68.249	58356.23994
68.467	58356.23994
68.686	58356.23994
68.905	58356.23994
69.123	58356.23994
69.342	58356.23994
69.56	58356.23994
69.779	58356.23994
69.997	58356.23994
70.216	58356.23994
70.434	58356.23994
70.652	58356.23994
70.871	58356.23994
71.089	58356.23994
71.307	58356.23994
71.526	58356.23994
71.744	58356.23994
71.962	58356.23994
72.181	58356.23994
72.399	58356.23994
72.617	58356.23994
72.835	58356.23994
73.054	58356.23994
73.272	58356.23994
73.49	58356.23994
73.708	58356.23994
73.926	58356.23994
74.144	58356.23994
74.362	58356.23994
74.58	58356.23994
74.798	58356.23994
75.016	58356.23994
75.234	58356.23994
75.452	58356.23994
75.67	58356.23994
75.888	58356.23994
76.106	58356.23994
76.324	58356.23994
76.542	58356.23994
76.76	58356.23994
76.978	58356.23994
77.196	58356.23994
77.413	58356.23994
77.631	58356.23994
77.849	58356.23994
78.067	58356.23994
78.284	58356.23994
78.502	58356.23994
78.72	58356.23994
78.938	58356.23994
79.155	58356.23994
79.373	58356.23994
79.59	58356.23994
79.808	58356.23994
80.026	58356.23994
80.243	58356.23994
80.461	58356.23994
80.678	58356.23994
80.896	58356.23994
81.113	58356.23994
81.331	58356.23994
81.548	58356.23994
81.766	58356.23994
81.983	58356.23994
82.2	58356.23994
82.418	58356.23994
82.635	58356.23994
82.852	58356.23994
83.07	58356.23994
83.287	58356.23994
83.504	58356.23994
83.722	58356.23994
83.939	58356.23994
84.156	58356.23994
84.373	58356.23994
84.591	58356.23994
84.808	58356.23994
85.025	58356.23994
85.242	58356.23994
85.459	58356.23994
85.676	58356.23994
85.893	58356.23994
86.11	58356.23994
86.327	58356.23994
86.544	58356.23994
86.761	58356.23994
86.978	58356.23994
87.195	58356.23994
87.412	58356.23994
87.629	58356.23994
87.846	58356.23994
88.063	58356.23994
88.28	58356.23994
88.497	58356.23994
88.713	58356.23994
88.93	58356.23994
89.147	58356.23994
89.364	58356.23994
89.58	58356.23994
89.797	58356.23994
90.014	58356.23994
90.231	58356.23994
90.447	58356.23994
90.664	58356.23994
90.881	58356.23994
91.097	58356.23994
91.314	58356.23994
91.53	58356.23994
91.747	58356.23994
91.963	58356.23994
92.18	58356.23994
92.396	58356.23994
92.613	58356.23994
92.829	58356.23994
93.046	58356.23994
93.262	58356.23994
93.479	58356.23994
93.695	58356.23994
93.911	58356.23994
94.128	58356.23994
94.344	58356.23994
94.56	58356.23994
94.777	58356.23994
94.993	58356.23994
95.209	58356.23994
95.426	58356.23994
95.642	58356.23994
95.858	58356.23994
96.074	58356.23994
96.29	58356.23994
96.506	58356.23994
96.723	58356.23994
96.939	58356.23994
97.155	58356.23994
97.371	58356.23994
97.587	58356.23994
97.803	58356.23994
98.019	58356.23994
98.235	58356.23994
98.451	58356.23994
98.667	58356.23994
98.883	58356.23994
99.099	58356.23994
99.315	58356.23994
99.53	58356.23994
99.746	58356.23994
99.962	58356.23994
100.178	58356.23994
100.394	58356.23994
100.61	58356.23994
100.825	58356.23994
101.041	58356.23994
101.257	58356.23994
101.473	58356.23994
101.688	58356.23994
101.904	58356.23994
102.12	58356.23994
102.335	58356.23994
102.551	58356.23994
102.766	58356.23994
102.982	58356.23994
103.198	58356.23994
103.413	58356.23994
103.629	58356.23994
103.844	58356.23994
104.06	58356.23994
104.275	58356.23994
104.49	58356.23994
104.706	58356.23994
104.921	58356.23994
105.137	58356.23994
105.352	58356.23994
105.567	58356.23994
105.783	58356.23994
105.998	58356.23994
106.213	58356.23994
106.429	58356.23994
106.644	58356.23994
106.859	58356.23994
107.074	58356.23994
107.29	58356.23994
107.505	58356.23994
107.72	58356.23994
107.935	58356.23994
108.15	58356.23994
108.365	58356.23994
108.58	58356.23994
108.795	58356.23994
109.01	58356.23994
109.226	58356.23994
109.441	58356.23994
109.656	58356.23994
109.871	58356.23994
110.085	58356.23994
110.3	58356.23994
110.515	58356.23994
110.73	58356.23994
110.945	58356.23994
111.16	58356.23994
111.375	58356.23994
111.59	58356.23994
111.804	58356.23994
112.019	58356.23994
112.234	58356.23994
112.449	58356.23994
112.663	58356.23994
112.878	58356.23994
113.093	58356.23994
113.308	58356.23994
113.522	58356.23994
113.737	58356.23994
113.951	58356.23994
114.166	58356.23994
114.381	58356.23994
114.595	58356.23994
114.81	58356.23994
115.024	58356.23994
115.239	58356.23994
115.453	58356.23994
115.668	58356.23994
115.882	58356.23994
116.097	58356.23994
116.311	58356.23994
116.525	58356.23994
116.74	58356.23994
116.954	58356.23994
117.169	58356.23994
117.383	58356.23994
117.597	58356.23994
117.811	58356.23994
118.026	58356.23994
118.24	58356.23994
118.454	58356.23994
118.668	58356.23994
118.883	58356.23994
119.097	58356.23994
119.311	58356.23994
119.525	58356.23994
119.739	58356.23994
119.953	58356.23994
120.167	58356.23994
120.381	58356.23994
120.595	58356.23994
120.809	58356.23994
121.023	58356.23994
121.237	58356.23994
121.451	58356.23994
121.665	58356.23994
121.879	58356.23994
122.093	58356.23994
122.307	58356.23994
122.521	58356.23994
122.735	58356.23994
122.949	58356.23994
123.163	58356.23994
123.376	58356.23994
123.59	58356.23994
123.804	58356.23994
124.018	58356.23994
124.231	58356.23994
124.445	58356.23994
124.659	58356.23994
124.872	58356.23994
125.086	58356.23994
125.3	58356.23994
125.513	58356.23994
125.727	58356.23994
125.94	58356.23994
126.154	58356.23994
126.368	58356.23994
126.581	58356.23994
126.795	58356.23994
127.008	58356.23994
127.222	58356.23994
127.435	58356.23994
127.648	58356.23994
127.862	58356.23994
128.075	58356.23994
128.289	58356.23994
128.502	58356.23994
128.715	58356.23994
128.929	58356.23994
129.142	58356.23994
129.355	58356.23994
129.568	58356.23994
129.782	58356.23994
129.995	58356.23994
130.208	58356.23994
130.421	58356.23994
130.634	58356.23994
130.848	58356.23994
131.061	58356.23994
131.274	58356.23994
131.487	58356.23994
131.7	58356.23994
131.913	58356.23994
132.126	58356.23994
132.339	58356.23994
132.552	58356.23994
132.765	58356.23994
132.978	58356.23994
133.191	58356.23994
133.404	58356.23994
133.617	58356.23994
133.83	58356.23994
134.043	58356.23994
134.255	58356.23994
134.468	58356.23994
134.681	58356.23994
134.894	58356.23994
135.107	58356.23994
135.319	58356.23994
135.532	58356.23994
135.745	58356.23994
135.958	58356.23994
136.17	58356.23994
136.383	58356.23994
136.596	58356.23994
136.808	58356.23994
137.021	58356.23994
137.233	58356.23994
137.446	58356.23994
137.659	58356.23994
137.871	58356.23994
138.084	58356.23994
138.296	58356.23994
138.509	58356.23994
138.721	58356.23994
138.934	58356.23994
139.146	58356.23994
139.358	58356.23994
139.571	58356.23994
139.783	58356.23994
139.996	58356.23994
140.208	58356.23994
140.42	58356.23994
140.632	58356.23994
140.845	58356.23994
141.057	58356.23994
141.269	58356.23994
141.481	58356.23994
141.694	58356.23994
141.906	58356.23994
142.118	58356.23994
142.33	58356.23994
142.542	58356.23994
142.754	58356.23994
142.967	58356.23994
143.179	58356.23994
143.391	58356.23994
143.603	58356.23994
143.815	58356.23994
144.027	58356.23994
144.239	58356.23994
144.451	58356.23994
144.663	58356.23994
144.875	58356.23994
145.086	58356.23994
145.298	58356.23994
145.51	58356.23994
145.722	58356.23994
145.934	58356.23994
146.146	58356.23994
146.358	58356.23994
146.569	58356.23994
146.781	58356.23994
146.993	58356.23994
147.205	58356.23994
147.416	58356.23994
147.628	58356.23994
147.84	58356.23994
148.051	58356.23994
148.263	58356.23994
148.475	58356.23994
148.686	58356.23994
148.898	58356.23994
149.109	58356.23994
149.321	58356.23994
149.532	58356.23994
149.744	58356.23994
149.955	58356.23994
150.167	58356.23994
150.378	58356.23994
150.59	58356.23994
150.801	58356.23994
151.013	58356.23994
151.224	58356.23994
151.435	58356.23994
151.647	58356.23994
151.858	58356.23994
152.069	58356.23994
152.281	58356.23994
152.492	58356.23994
152.703	58356.23994
152.914	58356.23994
153.126	58356.23994
153.337	58356.23994
153.548	58356.23994
153.759	58356.23994
153.97	58356.23994
154.181	58356.23994
154.392	58356.23994
154.604	58356.23994
154.815	58356.23994
155.026	58356.23994
155.237	58356.23994
155.448	58356.23994
155.659	58356.23994
155.87	58356.23994
156.081	58356.23994
156.292	58356.23994
156.502	58356.23994
156.713	58356.23994
156.924	58356.23994
157.135	58356.23994
157.346	58356.23994
157.557	58356.23994
157.768	58356.23994
157.978	58356.23994
158.189	58356.23994
158.4	58356.23994
158.611	58356.23994
158.821	58356.23994
159.032	58356.23994
159.243	58356.23994
159.453	58356.23994
159.664	58356.23994
159.875	58356.23994
160.085	58356.23994
160.296	58356.23994
160.507	58356.23994
160.717	58356.23994
160.928	58356.23994
161.138	58356.23994
161.349	58356.23994
161.559	58356.23994
161.77	58356.23994
161.98	58356.23994
162.19	58356.23994
162.401	58356.23994
162.611	58356.23994
162.822	58356.23994
163.032	58356.23994
163.242	58356.23994
163.453	58356.23994
163.663	58356.23994
163.873	58356.23994
164.084	58356.23994
164.294	58356.23994
164.504	58356.23994
164.714	58356.23994
164.924	58356.23994
165.135	58356.23994
165.345	58356.23994
165.555	58356.23994
165.765	58356.23994
165.975	58356.23994
166.185	58356.23994
166.395	58356.23994
166.605	58356.23994
166.815	58356.23994
167.025	58356.23994
167.235	58356.23994
167.445	58356.23994
167.655	58356.23994
167.865	58356.23994
168.075	58356.23994
168.285	58356.23994
168.495	58356.23994
168.705	58356.23994
168.915	58356.23994
169.124	58356.23994
169.334	58356.23994
169.544	58356.23994
169.754	58356.23994
169.964	58356.23994
170.173	58356.23994
170.383	58356.23994
170.593	58356.23994
170.802	58356.23994
171.012	58356.23994
171.222	58356.23994
171.431	58356.23994
171.641	58356.23994
171.851	58356.23994
172.06	58356.23994
172.27	58356.23994
172.479	58356.23994
172.689	58356.23994
172.898	58356.23994
173.108	58356.23994
173.317	58356.23994
173.527	58356.23994
173.736	58356.23994
173.945	58356.23994
174.155	58356.23994
174.364	58356.23994
174.574	58356.23994
174.783	58356.23994
174.992	58356.23994
175.202	58356.23994
175.411	58356.23994
175.62	58356.23994
175.829	58356.23994
176.039	58356.23994
176.248	58356.23994
176.457	58356.23994
176.666	58356.23994
176.875	58356.23994
177.084	58356.23994
177.294	58356.23994
177.503	58356.23994
177.712	58356.23994
177.921	58356.23994
178.13	58356.23994
178.339	58356.23994
178.548	58356.23994
178.757	58356.23994
178.966	58356.23994
179.175	58356.23994
179.384	58356.23994
179.593	58356.23994
179.802	58356.23994
180.011	58356.23994
180.219	58356.23994
180.428	58356.23994
180.637	58356.23994
180.846	58356.23994
181.055	58356.23994
181.263	58356.23994
181.472	58356.23994
181.681	58356.23994
181.89	58356.23994
182.098	58356.23994
182.307	58356.23994
182.516	58356.23994
182.724	58356.23994
182.933	58356.23994
183.142	58356.23994
183.35	58356.23994
183.559	58356.23994
183.767	58356.23994
183.976	58356.23994
184.184	58356.23994
184.393	58356.23994
184.601	58356.23994
184.81	58356.23994
185.018	58356.23994
185.227	58356.23994
185.435	58356.23994
185.644	58356.23994
185.852	58356.23994
186.06	58356.23994
186.269	58356.23994
186.477	58356.23994
186.685	58356.23994
186.894	58356.23994
187.102	58356.23994
187.31	58356.23994
187.518	58356.23994
187.727	58356.23994
187.935	58356.23994
188.143	58356.23994
188.351	58356.23994
188.559	58356.23994
188.768	58356.23994
188.976	58356.23994
189.184	58356.23994
189.392	58356.23994
189.6	58356.23994
189.808	58356.23994
190.016	58356.23994
190.224	58356.23994
190.432	58356.23994
190.64	58356.23994
190.848	58356.23994
191.056	58356.23994
191.264	58356.23994
191.472	58356.23994
191.679	58356.23994
191.887	58356.23994
192.095	58356.23994
192.303	58356.23994
192.511	58356.23994
192.719	58356.23994
192.926	58356.23994
193.134	58356.23994
193.342	58356.23994
193.55	58356.23994
193.757	58356.23994
193.965	58356.23994
194.173	58356.23994
194.38	58356.23994
194.588	58356.23994
194.796	58356.23994
195.003	58356.23994
195.211	58356.23994
195.418	58356.23994
195.626	58356.23994
195.833	58356.23994
196.041	58356.23994
196.248	58356.23994
196.456	58356.23994
196.663	58356.23994
196.871	58356.23994
197.078	58356.23994
197.285	58356.23994
197.493	58356.23994
197.7	58356.23994
197.908	58356.23994
198.115	58356.23994
198.322	58356.23994
198.529	58356.23994
198.737	58356.23994
198.944	58356.23994
199.151	58356.23994
199.358	58356.23994
199.566	58356.23994
199.773	58356.23994
199.98	58356.23994
200.187	58356.23994
200.394	58356.23994
200.601	58356.23994
200.809	58356.23994
201.016	58356.23994
201.223	58356.23994
201.43	58356.23994
201.637	58356.23994
201.844	58356.23994
202.051	58356.23994
202.258	58356.23994
202.465	58356.23994
202.672	58356.23994
202.878	58356.23994
203.085	58356.23994
203.292	58356.23994
203.499	58356.23994
203.706	58356.23994
203.913	58356.23994
204.12	58356.23994
204.326	58356.23994
204.533	58356.23994
204.74	58356.23994
204.947	58356.23994
205.153	58356.23994
205.36	58356.23994
205.567	58356.23994
205.773	58356.23994
205.98	58356.23994
206.187	58356.23994
206.393	58356.23994
206.6	58356.23994
206.806	58356.23994
207.013	58356.23994
207.22	58356.23994
207.426	58356.23994
207.633	58356.23994
207.839	58356.23994
208.046	58356.23994
208.252	58356.23994
208.458	58356.23994
208.665	58356.23994
208.871	58356.23994
209.078	58356.23994
209.284	58356.23994
209.49	58356.23994
209.697	58356.23994
209.903	58356.23994
210.109	58356.23994
210.316	58356.23994
210.522	58356.23994
210.728	58356.23994
210.934	58356.23994
211.14	58356.23994
211.347	58356.23994
211.553	58356.23994
211.759	58356.23994
211.965	58356.23994
212.171	58356.23994
212.377	58356.23994
212.583	58356.23994
212.789	58356.23994
212.996	58356.23994
213.202	58356.23994
213.408	58356.23994
213.614	58356.23994
213.82	58356.23994
214.025	58356.23994
214.231	58356.23994
214.437	58356.23994
214.643	58356.23994
214.849	58356.23994
215.055	58356.23994
215.261	58356.23994
215.467	58356.23994
215.672	58356.23994
215.878	58356.23994
216.084	58356.23994
216.29	58356.23994
216.496	58356.23994
216.701	58356.23994
216.907	58356.23994
217.113	58356.23994
217.318	58356.23994
217.524	58356.23994
217.73	58356.23994
217.935	58356.23994
218.141	58356.23994
218.346	58356.23994
218.552	58356.23994
218.758	58356.23994
218.963	58356.23994
219.169	58356.23994
219.374	58356.23994
219.58	58356.23994
219.785	58356.23994
219.991	58356.23994
220.196	58356.23994
220.401	58356.23994
220.607	58356.23994
220.812	58356.23994
221.017	58356.23994
221.223	58356.23994
221.428	58356.23994
221.633	58356.23994
221.839	58356.23994
222.044	58356.23994
222.249	58356.23994
222.454	58356.23994
222.66	58356.23994
222.865	58356.23994
223.07	58356.23994
223.275	58356.23994
223.48	58356.23994
223.686	58356.23994
223.891	58356.23994
224.096	58356.23994
224.301	58356.23994
224.506	58356.23994
224.711	58356.23994
224.916	58356.23994
225.121	58356.23994
225.326	58356.23994
225.531	58356.23994
225.736	58356.23994
225.941	58356.23994
226.146	58356.23994
226.351	58356.23994
226.555	58356.23994
226.76	58356.23994
226.965	58356.23994
227.17	58356.23994
227.375	58356.23994
227.58	58356.23994
227.784	58356.23994
227.989	58356.23994
228.194	58356.23994
228.399	58356.23994
228.603	58356.23994
228.808	58356.23994
229.013	58356.23994
229.217	58356.23994
229.422	58356.23994
229.627	58356.23994
229.831	58356.23994
230.036	58356.23994
230.24	58356.23994
230.445	58356.23994
230.649	58356.23994
230.854	58356.23994
231.058	58356.23994
231.263	58356.23994
231.467	58356.23994
231.672	58356.23994
231.876	58356.23994
232.081	58356.23994
232.285	58356.23994
232.489	58356.23994
232.694	58356.23994
232.898	58356.23994
233.102	58356.23994
233.307	58356.23994
233.511	58356.23994
233.715	58356.23994
233.919	58356.23994
234.124	58356.23994
234.328	58356.23994
234.532	58356.23994
234.736	58356.23994
234.94	58356.23994
235.145	58356.23994
235.349	58356.23994
235.553	58356.23994
235.757	58356.23994
235.961	58356.23994
236.165	58356.23994
236.369	58356.23994
236.573	58356.23994
236.777	58356.23994
236.981	58356.23994
237.185	58356.23994
237.389	58356.23994
237.593	58356.23994
237.797	58356.23994
238.001	58356.23994
238.205	58356.23994
238.409	58356.23994
238.612	58356.23994
238.816	58356.23994
239.02	58356.23994
239.224	58356.23994
239.428	58356.23994
239.631	58356.23994
239.835	58356.23994
240.039	58356.23994
240.243	58356.23994
240.446	58356.23994
240.65	58356.23994
240.854	58356.23994
241.057	58356.23994
241.261	58356.23994
241.464	58356.23994
241.668	58356.23994
241.872	58356.23994
242.075	58356.23994
242.279	58356.23994
242.482	58356.23994
242.686	58356.23994
242.889	58356.23994
243.093	58356.23994
243.296	58356.23994
243.499	58356.23994
243.703	58356.23994
243.906	58356.23994
244.11	58356.23994
244.313	58356.23994
244.516	58356.23994
244.72	58356.23994
244.923	58356.23994
245.126	58356.23994
245.33	58356.23994
245.533	58356.23994
245.736	58356.23994
245.939	58356.23994
246.142	58356.23994
246.346	58356.23994
246.549	58356.23994
246.752	58356.23994
246.955	58356.23994
247.158	58356.23994
247.361	58356.23994
247.564	58356.23994
247.767	58356.23994
247.971	58356.23994
248.174	58356.23994
248.377	58356.23994
248.58	58356.23994
248.783	58356.23994
248.985	58356.23994
249.188	58356.23994
249.391	58356.23994
249.594	58356.23994
249.797	58356.23994
250	58356.23994
250.203	58356.23994
250.406	58356.23994
250.609	58356.23994
250.811	58356.23994
251.014	58356.23994
251.217	58356.23994
251.42	58356.23994
251.622	58356.23994
251.825	58356.23994
252.028	58356.23994
252.231	58356.23994
252.433	58356.23994
252.636	58356.23994
252.838	58356.23994
253.041	58356.23994
253.244	58356.23994
253.446	58356.23994
253.649	58356.23994
253.851	58356.23994
254.054	58356.23994
254.256	58356.23994
254.459	58356.23994
254.661	58356.23994
254.864	58356.23994
255.066	58356.23994
255.269	58356.23994
255.471	58356.23994
255.673	58356.23994
255.876	58356.23994
256.078	58356.23994
256.281	58356.23994
256.483	58356.23994
256.685	58356.23994
256.887	58356.23994
257.09	58356.23994
257.292	58356.23994
257.494	58356.23994
257.696	58356.23994
257.899	58356.23994
258.101	58356.23994
258.303	58356.23994
258.505	58356.23994
258.707	58356.23994
258.909	58356.23994
259.111	58356.23994
259.314	58356.23994
259.516	58356.23994
259.718	58356.23994
259.92	58356.23994
260.122	58356.23994
260.324	58356.23994
260.526	58356.23994
260.728	58356.23994
260.93	58356.23994
261.131	58356.23994
261.333	58356.23994
261.535	58356.23994
261.737	58356.23994
261.939	58356.23994
262.141	58356.23994
262.343	58356.23994
262.544	58356.23994
262.746	58356.23994
262.948	58356.23994
263.15	58356.23994
263.352	58356.23994
263.553	58356.23994
263.755	58356.23994
263.957	58356.23994
264.158	58356.23994
264.36	58356.23994
264.562	58356.23994
264.763	58356.23994
264.965	58356.23994
265.166	58356.23994
265.368	58356.23994
265.569	58356.23994
265.771	58356.23994
265.972	58356.23994
266.174	58356.23994
266.375	58356.23994
266.577	58356.23994
266.778	58356.23994
266.98	58356.23994
267.181	58356.23994
267.383	58356.23994
267.584	58356.23994
267.785	58356.23994
267.987	58356.23994
268.188	58356.23994
268.389	58356.23994
268.591	58356.23994
268.792	58356.23994
268.993	58356.23994
269.194	58356.23994
269.396	58356.23994
269.597	58356.23994
269.798	58356.23994
269.999	58356.23994
270.2	58356.23994
270.401	58356.23994
270.603	58356.23994
270.804	58356.23994
271.005	58356.23994
271.206	58356.23994
271.407	58356.23994
271.608	58356.23994
271.809	58356.23994
272.01	58356.23994
272.211	58356.23994
272.412	58356.23994
272.613	58356.23994
272.814	58356.23994
273.015	58356.23994
273.216	58356.23994
273.416	58356.23994
273.617	58356.23994
273.818	58356.23994
274.019	58356.23994
274.22	58356.23994
274.421	58356.23994
274.621	58356.23994
274.822	58356.23994
275.023	58356.23994
275.224	58356.23994
275.424	58356.23994
275.625	58356.23994
275.826	58356.23994
276.026	58356.23994
276.227	58356.23994
276.428	58356.23994
276.628	58356.23994
276.829	58356.23994
277.029	58356.23994
277.23	58356.23994
277.43	58356.23994
277.631	58356.23994
277.831	58356.23994
278.032	58356.23994
278.232	58356.23994
278.433	58356.23994
278.633	58356.23994
278.834	58356.23994
279.034	58356.23994
279.234	58356.23994
279.435	58356.23994
279.635	58356.23994
279.835	58356.23994
280.036	58356.23994
280.236	58356.23994
280.436	58356.23994
280.637	58356.23994
280.837	58356.23994
281.037	58356.23994
281.237	58356.23994
281.438	58356.23994
281.638	58356.23994
281.838	58356.23994
282.038	58356.23994
282.238	58356.23994
282.438	58356.23994
282.638	58356.23994
282.838	58356.23994
283.038	58356.23994
283.239	58356.23994
283.439	58356.23994
283.639	58356.23994
283.839	58356.23994
284.039	58356.23994
284.238	58356.23994
284.438	58356.23994
284.638	58356.23994
284.838	58356.23994
285.038	58356.23994
285.238	58356.23994
285.438	58356.23994
285.638	58356.23994
285.838	58356.23994
286.037	58356.23994
286.237	58356.23994
286.437	58356.23994
286.637	58356.23994
286.836	58356.23994
287.036	58356.23994
287.236	58356.23994
287.436	58356.23994
287.635	58356.23994
287.835	58356.23994
288.034	58356.23994
288.234	58356.23994
288.434	58356.23994
288.633	58356.23994
288.833	58356.23994
289.032	58356.23994
289.232	58356.23994
289.431	58356.23994
289.631	58356.23994
289.83	58356.23994
290.03	58356.23994
290.229	58356.23994
290.429	58356.23994
290.628	58356.23994
290.828	58356.23994
291.027	58356.23994
291.226	58356.23994
291.426	58356.23994
291.625	58356.23994
291.824	58356.23994
292.024	58356.23994
292.223	58356.23994
292.422	58356.23994
292.621	58356.23994
292.821	58356.23994
293.02	58356.23994
293.219	58356.23994
293.418	58356.23994
293.617	58356.23994
293.817	58356.23994
294.016	58356.23994
294.215	58356.23994
294.414	58356.23994
294.613	58356.23994
294.812	58356.23994
295.011	58356.23994
295.21	58356.23994
295.409	58356.23994
295.608	58356.23994
295.807	58356.23994
296.006	58356.23994
296.205	58356.23994
296.404	58356.23994
296.603	58356.23994
296.802	58356.23994
297.001	58356.23994
297.2	58356.23994
297.398	58356.23994
297.597	58356.23994
297.796	58356.23994
297.995	58356.23994
298.194	58356.23994
298.392	58356.23994
298.591	58356.23994
298.79	58356.23994
298.988	58356.23994
299.187	58356.23994
299.386	58356.23994
299.585	58356.23994
299.783	58356.23994
299.982	58356.23994
300.18	58356.23994
300.379	58356.23994
300.578	58356.23994
300.776	58356.23994
300.975	58356.23994
301.173	58356.23994
301.372	58356.23994
301.57	58356.23994
301.769	58356.23994
301.967	58356.23994
302.166	58356.23994
302.364	58356.23994
302.562	58356.23994
302.761	58356.23994
302.959	58356.23994
303.157	58356.23994
303.356	58356.23994
303.554	58356.23994
303.752	58356.23994
303.951	58356.23994
304.149	58356.23994
304.347	58356.23994
304.546	58356.23994
304.744	58356.23994
304.942	58356.23994
305.14	58356.23994
305.338	58356.23994
305.536	58356.23994
305.735	58356.23994
305.933	58356.23994
306.131	58356.23994
306.329	58356.23994
306.527	58356.23994
306.725	58356.23994
306.923	58356.23994
307.121	58356.23994
307.319	58356.23994
307.517	58356.23994
307.715	58356.23994
307.913	58356.23994
308.111	58356.23994
308.309	58356.23994
308.507	58356.23994
308.705	58356.23994
308.903	58356.23994
309.1	58356.23994
309.298	58356.23994
309.496	58356.23994
309.694	58356.23994
309.892	58356.23994
310.089	58356.23994
310.287	58356.23994
310.485	58356.23994
310.683	58356.23994
310.88	58356.23994
311.078	58356.23994
311.276	58356.23994
311.473	58356.23994
311.671	58356.23994
311.869	58356.23994
312.066	58356.23994
312.264	58356.23994
312.461	58356.23994
312.659	58356.23994
312.856	58356.23994
313.054	58356.23994
313.251	58356.23994
313.449	58356.23994
313.646	58356.23994
313.844	58356.23994
314.041	58356.23994
314.239	58356.23994
314.436	58356.23994
314.634	58356.23994
314.831	58356.23994
315.028	58356.23994
315.226	58356.23994
315.423	58356.23994
315.62	58356.23994
315.817	58356.23994
316.015	58356.23994
316.212	58356.23994
316.409	58356.23994
316.606	58356.23994
316.804	58356.23994
317.001	58356.23994
317.198	58356.23994
317.395	58356.23994
317.592	58356.23994
317.789	58356.23994
317.987	58356.23994
318.184	58356.23994
318.381	58356.23994
318.578	58356.23994
318.775	58356.23994
318.972	58356.23994
319.169	58356.23994
319.366	58356.23994
319.563	58356.23994
319.76	58356.23994
319.957	58356.23994
320.154	58356.23994
320.351	58356.23994
320.547	58356.23994
320.744	58356.23994
320.941	58356.23994
321.138	58356.23994
321.335	58356.23994
321.532	58356.23994
321.728	58356.23994
321.925	58356.23994
322.122	58356.23994
322.319	58356.23994
322.515	58356.23994
322.712	58356.23994
322.909	58356.23994
323.105	58356.23994
323.302	58356.23994
323.499	58356.23994
323.695	58356.23994
323.892	58356.23994
324.089	58356.23994
324.285	58356.23994
324.482	58356.23994
324.678	58356.23994
324.875	58356.23994
325.071	58356.23994
325.268	58356.23994
325.464	58356.23994
325.661	58356.23994
325.857	58356.23994
326.054	58356.23994
326.25	58356.23994
326.446	58356.23994
326.643	58356.23994
326.839	58356.23994
327.035	58356.23994
327.232	58356.23994
327.428	58356.23994
327.624	58356.23994
327.821	58356.23994
328.017	58356.23994
328.213	58356.23994
328.409	58356.23994
328.606	58356.23994
328.802	58356.23994
328.998	58356.23994
329.194	58356.23994
329.39	58356.23994
329.586	58356.23994
329.783	58356.23994
329.979	58356.23994
330.175	58356.23994
330.371	58356.23994
330.567	58356.23994
330.763	58356.23994
330.959	58356.23994
331.155	58356.23994
331.351	58356.23994
331.547	58356.23994
331.743	58356.23994
331.939	58356.23994
332.135	58356.23994
332.33	58356.23994
332.526	58356.23994
332.722	58356.23994
332.918	58356.23994
333.114	58356.23994
333.31	58356.23994
333.506	58356.23994
333.701	58356.23994
333.897	58356.23994
334.093	58356.23994
334.289	58356.23994
334.484	58356.23994
334.68	58356.23994
334.876	58356.23994
335.071	58356.23994
335.267	58356.23994
335.463	58356.23994
335.658	58356.23994
335.854	58356.23994
336.049	58356.23994
336.245	58356.23994
336.441	58356.23994
336.636	58356.23994
336.832	58356.23994
337.027	58356.23994
337.223	58356.23994
337.418	58356.23994
337.613	58356.23994
337.809	58356.23994
338.004	58356.23994
338.2	58356.23994
338.395	58356.23994
338.591	58356.23994
338.786	58356.23994
338.981	58356.23994
339.177	58356.23994
339.372	58356.23994
339.567	58356.23994
339.762	58356.23994
339.958	58356.23994
340.153	58356.23994
340.348	58356.23994
340.543	58356.23994
340.739	58356.23994
340.934	58356.23994
341.129	58356.23994
341.324	58356.23994
341.519	58356.23994
341.714	58356.23994
341.909	58356.23994
342.104	58356.23994
342.299	58356.23994
342.495	58356.23994
342.69	58356.23994
342.885	58356.23994
343.08	58356.23994
343.275	58356.23994
343.469	58356.23994
343.664	58356.23994
343.859	58356.23994
344.054	58356.23994
344.249	58356.23994
344.444	58356.23994
344.639	58356.23994
344.834	58356.23994
345.029	58356.23994
345.223	58356.23994
345.418	58356.23994
345.613	58356.23994
345.808	58356.23994
346.003	58356.23994
346.197	58356.23994
346.392	58356.23994
346.587	58356.23994
346.781	58356.23994
346.976	58356.23994
347.171	58356.23994
347.365	58356.23994
347.56	58356.23994
347.755	58356.23994
347.949	58356.23994
348.144	58356.23994
348.338	58356.23994
348.533	58356.23994
348.727	58356.23994
348.922	58356.23994
349.116	58356.23994
349.311	58356.23994
349.505	58356.23994
349.7	58356.23994
349.894	58356.23994
350.089	58356.23994
350.283	58356.23994
350.477	58356.23994
350.672	58356.23994
350.866	58356.23994
351.06	58356.23994
351.255	58356.23994
351.449	58356.23994
351.643	58356.23994
351.837	58356.23994
352.032	58356.23994
352.226	58356.23994
352.42	58356.23994
352.614	58356.23994
352.809	58356.23994
353.003	58356.23994
353.197	58356.23994
353.391	58356.23994
353.585	58356.23994
353.779	58356.23994
353.973	58356.23994
354.167	58356.23994
354.361	58356.23994
354.555	58356.23994
354.749	58356.23994
354.943	58356.23994
355.137	58356.23994
355.331	58356.23994
355.525	58356.23994
355.719	58356.23994
355.913	58356.23994
356.107	58356.23994
356.301	58356.23994
356.495	58356.23994
356.689	58356.23994
356.883	58356.23994
357.076	58356.23994
357.27	58356.23994
357.464	58356.23994
357.658	58356.23994
357.852	58356.23994
358.045	58356.23994
358.239	58356.23994
358.433	58356.23994
358.626	58356.23994
358.82	58356.23994
359.014	58356.23994
359.207	58356.23994
359.401	58356.23994
359.595	58356.23994
359.788	58356.23994
359.982	58356.23994
360.175	58356.23994
360.369	58356.23994
360.563	58356.23994
360.756	58356.23994
360.95	58356.23994
361.143	58356.23994
361.336	58356.23994
361.53	58356.23994
361.723	58356.23994
361.917	58356.23994
362.11	58356.23994
362.304	58356.23994
362.497	58356.23994
362.69	58356.23994
362.884	58356.23994
363.077	58356.23994
363.27	58356.23994
363.464	58356.23994
363.657	58356.23994
363.85	58356.23994
364.043	58356.23994
364.237	58356.23994
364.43	58356.23994
364.623	58356.23994
364.816	58356.23994
365.009	58356.23994
365.202	58356.23994
365.396	58356.23994
365.589	58356.23994
365.782	58356.23994
365.975	58356.23994
366.168	58356.23994
366.361	58356.23994
366.554	58356.23994
366.747	58356.23994
366.94	58356.23994
367.133	58356.23994
367.326	58356.23994
367.519	58356.23994
367.712	58356.23994
367.905	58356.23994
368.098	58356.23994
368.291	58356.23994
368.484	58356.23994
368.676	58356.23994
368.869	58356.23994
369.062	58356.23994
369.255	58356.23994
369.448	58356.23994
369.64	58356.23994
369.833	58356.23994
370.026	58356.23994
370.219	58356.23994
370.411	58356.23994
370.604	58356.23994
370.797	58356.23994
370.989	58356.23994
371.182	58356.23994
371.375	58356.23994
371.567	58356.23994
371.76	58356.23994
371.952	58356.23994
372.145	58356.23994
372.338	58356.23994
372.53	58356.23994
372.723	58356.23994
372.915	58356.23994
373.108	58356.23994
373.3	58356.23994
373.493	58356.23994
373.685	58356.23994
373.877	58356.23994
374.07	58356.23994
374.262	58356.23994
374.455	58356.23994
374.647	58356.23994
374.839	58356.23994
375.032	58356.23994
375.224	58356.23994
375.416	58356.23994
375.609	58356.23994
375.801	58356.23994
375.993	58356.23994
376.185	58356.23994
376.378	58356.23994
376.57	58356.23994
376.762	58356.23994
376.954	58356.23994
377.146	58356.23994
377.338	58356.23994
377.53	58356.23994
377.723	58356.23994
377.915	58356.23994
378.107	58356.23994
378.299	58356.23994
378.491	58356.23994
378.683	58356.23994
378.875	58356.23994
379.067	58356.23994
379.259	58356.23994
379.451	58356.23994
379.643	58356.23994
379.835	58356.23994
380.027	58356.23994
380.219	58356.23994
380.41	58356.23994
380.602	58356.23994
380.794	58356.23994
380.986	58356.23994
381.178	58356.23994
381.37	58356.23994
381.561	58356.23994
381.753	58356.23994
381.945	58356.23994
382.137	58356.23994
382.328	58356.23994
382.52	58356.23994
382.712	58356.23994
382.903	58356.23994
383.095	58356.23994
383.287	58356.23994
383.478	58356.23994
383.67	58356.23994
383.862	58356.23994
384.053	58356.23994
384.245	58356.23994
384.436	58356.23994
384.628	58356.23994
384.819	58356.23994
385.011	58356.23994
385.202	58356.23994
385.394	58356.23994
385.585	58356.23994
385.777	58356.23994
385.968	58356.23994
386.159	58356.23994
386.351	58356.23994
386.542	58356.23994
386.734	58356.23994
386.925	58356.23994
387.116	58356.23994
387.308	58356.23994
387.499	58356.23994
387.69	58356.23994
387.881	58356.23994
388.073	58356.23994
388.264	58356.23994
388.455	58356.23994
388.646	58356.23994
388.837	58356.23994
389.029	58356.23994
389.22	58356.23994
389.411	58356.23994
389.602	58356.23994
389.793	58356.23994
389.984	58356.23994
390.175	58356.23994
390.366	58356.23994
390.557	58356.23994
390.748	58356.23994
390.939	58356.23994
391.13	58356.23994
391.321	58356.23994
391.512	58356.23994
391.703	58356.23994
391.894	58356.23994
392.085	58356.23994
392.276	58356.23994
392.467	58356.23994
392.658	58356.23994
392.849	58356.23994
393.039	58356.23994
393.23	58356.23994
393.421	58356.23994
393.612	58356.23994
393.803	58356.23994
393.993	58356.23994
394.184	58356.23994
394.375	58356.23994
394.566	58356.23994
394.756	58356.23994
394.947	58356.23994
395.138	58356.23994
395.328	58356.23994
395.519	58356.23994
395.709	58356.23994
395.9	58356.23994
396.091	58356.23994
396.281	58356.23994
396.472	58356.23994
396.662	58356.23994
396.853	58356.23994
397.043	58356.23994
397.234	58356.23994
397.424	58356.23994
397.615	58356.23994
397.805	58356.23994
397.996	58356.23994
398.186	58356.23994
398.376	58356.23994
398.567	58356.23994
398.757	58356.23994
398.947	58356.23994
399.138	58356.23994
399.328	58356.23994
399.518	58356.23994
399.709	58356.23994
399.899	58356.23994
400.089	58356.23994
400.279	58356.23994
400.47	58356.23994
400.66	58356.23994
400.85	58356.23994
401.04	58356.23994
401.23	58356.23994
401.421	58356.23994
401.611	58356.23994
401.801	58356.23994
401.991	58356.23994
402.181	58356.23994
402.371	58356.23994
402.561	58356.23994
402.751	58356.23994
402.941	58356.23994
403.131	58356.23994
403.321	58356.23994
403.511	58356.23994
403.701	58356.23994
403.891	58356.23994
404.081	58356.23994
404.271	58356.23994
404.461	58356.23994
404.651	58356.23994
404.84	58356.23994
405.03	58356.23994
405.22	58356.23994
405.41	58356.23994
405.6	58356.23994
405.789	58356.23994
405.979	58356.23994
406.169	58356.23994
406.359	58356.23994
406.548	58356.23994
406.738	58356.23994
406.928	58356.23994
407.118	58356.23994
407.307	58356.23994
407.497	58356.23994
407.686	58356.23994
407.876	58356.23994
408.066	58356.23994
408.255	58356.23994
408.445	58356.23994
408.634	58356.23994
408.824	58356.23994
409.013	58356.23994
409.203	58356.23994
409.392	58356.23994
409.582	58356.23994
409.771	58356.23994
409.961	58356.23994
410.15	58356.23994
410.34	58356.23994
410.529	58356.23994
410.718	58356.23994
410.908	58356.23994
411.097	58356.23994
411.286	58356.23994
411.476	58356.23994
411.665	58356.23994
411.854	58356.23994
412.044	58356.23994
412.233	58356.23994
412.422	58356.23994
412.611	58356.23994
412.8	58356.23994
412.99	58356.23994
413.179	58356.23994
413.368	58356.23994
413.557	58356.23994
413.746	58356.23994
413.935	58356.23994
414.124	58356.23994
414.313	58356.23994
414.503	58356.23994
414.692	58356.23994
414.881	58356.23994
415.07	58356.23994
415.259	58356.23994
415.448	58356.23994
415.637	58356.23994
415.826	58356.23994
416.015	58356.23994
416.203	58356.23994
416.392	58356.23994
416.581	58356.23994
416.77	58356.23994
416.959	58356.23994
417.148	58356.23994
417.337	58356.23994
417.525	58356.23994
417.714	58356.23994
417.903	58356.23994
418.092	58356.23994
418.281	58356.23994
418.469	58356.23994
418.658	58356.23994
418.847	58356.23994
419.035	58356.23994
419.224	58356.23994
419.413	58356.23994
419.601	58356.23994
419.79	58356.23994
419.979	58356.23994
420.167	58356.23994
420.356	58356.23994
420.544	58356.23994
420.733	58356.23994
420.921	58356.23994
421.11	58356.23994
421.299	58356.23994
421.487	58356.23994
421.675	58356.23994
421.864	58356.23994
422.052	58356.23994
422.241	58356.23994
422.429	58356.23994
422.618	58356.23994
422.806	58356.23994
422.994	58356.23994
423.183	58356.23994
423.371	58356.23994
423.559	58356.23994
423.748	58356.23994
423.936	58356.23994
424.124	58356.23994
424.312	58356.23994
424.501	58356.23994
424.689	58356.23994
424.877	58356.23994
425.065	58356.23994
425.254	58356.23994
425.442	58356.23994
425.63	58356.23994
425.818	58356.23994
426.006	58356.23994
426.194	58356.23994
426.382	58356.23994
426.57	58356.23994
426.758	58356.23994
426.946	58356.23994
427.134	58356.23994
427.323	58356.23994
427.51	58356.23994
427.698	58356.23994
427.886	58356.23994
428.074	58356.23994
428.262	58356.23994
428.45	58356.23994
428.638	58356.23994
428.826	58356.23994
429.014	58356.23994
429.202	58356.23994
429.39	58356.23994
429.577	58356.23994
429.765	58356.23994
429.953	58356.23994
430.141	58356.23994
430.329	58356.23994
430.516	58356.23994
430.704	58356.23994
430.892	58356.23994
431.079	58356.23994
431.267	58356.23994
431.455	58356.23994
431.643	58356.23994
431.83	58356.23994
432.018	58356.23994
432.205	58356.23994
432.393	58356.23994
432.581	58356.23994
432.768	58356.23994
432.956	58356.23994
433.143	58356.23994
433.331	58356.23994
433.518	58356.23994
433.706	58356.23994
433.893	58356.23994
434.081	58356.23994
434.268	58356.23994
434.456	58356.23994
434.643	58356.23994
434.83	58356.23994
435.018	58356.23994
435.205	58356.23994
435.392	58356.23994
435.58	58356.23994
435.767	58356.23994
435.954	58356.23994
436.142	58356.23994
436.329	58356.23994
436.516	58356.23994
436.703	58356.23994
436.891	58356.23994
437.078	58356.23994
437.265	58356.23994
437.452	58356.23994
437.639	58356.23994
437.827	58356.23994
438.014	58356.23994
438.201	58356.23994
438.388	58356.23994
438.575	58356.23994
438.762	58356.23994
438.949	58356.23994
439.136	58356.23994
439.323	58356.23994
439.51	58356.23994
439.697	58356.23994
439.884	58356.23994
440.071	58356.23994
440.258	58356.23994
440.445	58356.23994
440.632	58356.23994
440.819	58356.23994
441.006	58356.23994
441.193	58356.23994
441.38	58356.23994
441.566	58356.23994
441.753	58356.23994
441.94	58356.23994
442.127	58356.23994
442.314	58356.23994
442.5	58356.23994
442.687	58356.23994
442.874	58356.23994
443.061	58356.23994
443.247	58356.23994
443.434	58356.23994
443.621	58356.23994
443.807	58356.23994
443.994	58356.23994
444.181	58356.23994
444.367	58356.23994
444.554	58356.23994
444.74	58356.23994
444.927	58356.23994
445.114	58356.23994
445.3	58356.23994
445.487	58356.23994
445.673	58356.23994
445.86	58356.23994
446.046	58356.23994
446.233	58356.23994
446.419	58356.23994
446.605	58356.23994
446.792	58356.23994
446.978	58356.23994
447.165	58356.23994
447.351	58356.23994
447.537	58356.23994
447.724	58356.23994
447.91	58356.23994
448.096	58356.23994
448.283	58356.23994
448.469	58356.23994
448.655	58356.23994
448.841	58356.23994
449.028	58356.23994
449.214	58356.23994
449.4	58356.23994
449.586	58356.23994
449.773	58356.23994
449.959	58356.23994
450.145	58356.23994
450.331	58356.23994
450.517	58356.23994
450.703	58356.23994
450.889	58356.23994
451.075	58356.23994
451.261	58356.23994
451.447	58356.23994
451.633	58356.23994
451.819	58356.23994
452.005	58356.23994
452.191	58356.23994
452.377	58356.23994
452.563	58356.23994
452.749	58356.23994
452.935	58356.23994
453.121	58356.23994
453.307	58356.23994
453.493	58356.23994
453.679	58356.23994
453.865	58356.23994
454.05	58356.23994
454.236	58356.23994
454.422	58356.23994
454.608	58356.23994
454.794	58356.23994
454.979	58356.23994
455.165	58356.23994
455.351	58356.23994
455.537	58356.23994
455.722	58356.23994
455.908	58356.23994
456.094	58356.23994
456.279	58356.23994
456.465	58356.23994
456.65	58356.23994
456.836	58356.23994
457.022	58356.23994
457.207	58356.23994
457.393	58356.23994
457.578	58356.23994
457.764	58356.23994
457.949	58356.23994
458.135	58356.23994
458.32	58356.23994
458.506	58356.23994
458.691	58356.23994
458.877	58356.23994
459.062	58356.23994
459.248	58356.23994
459.433	58356.23994
459.618	58356.23994
459.804	58356.23994
459.989	58356.23994
460.174	58356.23994
460.36	58356.23994
460.545	58356.23994
460.73	58356.23994
460.915	58356.23994
461.101	58356.23994
461.286	58356.23994
461.471	58356.23994
461.656	58356.23994
461.842	58356.23994
462.027	58356.23994
462.212	58356.23994
462.397	58356.23994
462.582	58356.23994
462.767	58356.23994
462.952	58356.23994
463.138	58356.23994
463.323	58356.23994
463.508	58356.23994
463.693	58356.23994
463.878	58356.23994
464.063	58356.23994
464.248	58356.23994
464.433	58356.23994
464.618	58356.23994
464.803	58356.23994
464.988	58356.23994
465.173	58356.23994
465.357	58356.23994
465.542	58356.23994
465.727	58356.23994
465.912	58356.23994
466.097	58356.23994
466.282	58356.23994
466.467	58356.23994
466.651	58356.23994
466.836	58356.23994
467.021	58356.23994
467.206	58356.23994
467.391	58356.23994
467.575	58356.23994
467.76	58356.23994
467.945	58356.23994
468.129	58356.23994
468.314	58356.23994
468.499	58356.23994
468.683	58356.23994
468.868	58356.23994
469.053	58356.23994
469.237	58356.23994
469.422	58356.23994
469.606	58356.23994
469.791	58356.23994
469.975	58356.23994
470.16	58356.23994
470.344	58356.23994
470.529	58356.23994
470.713	58356.23994
470.898	58356.23994
471.082	58356.23994
471.267	58356.23994
471.451	58356.23994
471.636	58356.23994
471.82	58356.23994
472.004	58356.23994
472.189	58356.23994
472.373	58356.23994
472.557	58356.23994
472.742	58356.23994
472.926	58356.23994
473.11	58356.23994
473.295	58356.23994
473.479	58356.23994
473.663	58356.23994
473.847	58356.23994
474.031	58356.23994
474.216	58356.23994
474.4	58356.23994
474.584	58356.23994
474.768	58356.23994
474.952	58356.23994
475.136	58356.23994
475.32	58356.23994
475.505	58356.23994
475.689	58356.23994
475.873	58356.23994
476.057	58356.23994
476.241	58356.23994
476.425	58356.23994
476.609	58356.23994
476.793	58356.23994
476.977	58356.23994
477.161	58356.23994
477.345	58356.23994
477.529	58356.23994
477.713	58356.23994
477.896	58356.23994
478.08	58356.23994
478.264	58356.23994
478.448	58356.23994
478.632	58356.23994
478.816	58356.23994
478.999	58356.23994
479.183	58356.23994
479.367	58356.23994
479.551	58356.23994
479.735	58356.23994
479.918	58356.23994
480.102	58356.23994
480.286	58356.23994
480.469	58356.23994
480.653	58356.23994
480.837	58356.23994
481.02	58356.23994
481.204	58356.23994
481.388	58356.23994
481.571	58356.23994
481.755	58356.23994
481.938	58356.23994
482.122	58356.23994
482.305	58356.23994
482.489	58356.23994
482.673	58356.23994
482.856	58356.23994
483.04	58356.23994
483.223	58356.23994
483.406	58356.23994
483.59	58356.23994
483.773	58356.23994
483.957	58356.23994
484.14	58356.23994
484.323	58356.23994
484.507	58356.23994
484.69	58356.23994
484.874	58356.23994
485.057	58356.23994
485.24	58356.23994
485.423	58356.23994
485.607	58356.23994
485.79	58356.23994
485.973	58356.23994
486.156	58356.23994
486.34	58356.23994
486.523	58356.23994
486.706	58356.23994
486.889	58356.23994
487.072	58356.23994
487.256	58356.23994
487.439	58356.23994
487.622	58356.23994
487.805	58356.23994
487.988	58356.23994
488.171	58356.23994
488.354	58356.23994
488.537	58356.23994
488.72	58356.23994
488.903	58356.23994
489.086	58356.23994
489.269	58356.23994
489.452	58356.23994
489.635	58356.23994
489.818	58356.23994
490.001	58356.23994
490.184	58356.23994
490.367	58356.23994
490.55	58356.23994
490.732	58356.23994
490.915	58356.23994
491.098	58356.23994
491.281	58356.23994
491.464	58356.23994
491.647	58356.23994
491.829	58356.23994
492.012	58356.23994
492.195	58356.23994
492.378	58356.23994
492.56	58356.23994
492.743	58356.23994
492.926	58356.23994
493.108	58356.23994
493.291	58356.23994
493.474	58356.23994
493.656	58356.23994
493.839	58356.23994
494.022	58356.23994
494.204	58356.23994
494.387	58356.23994
494.569	58356.23994
494.752	58356.23994
494.934	58356.23994
495.117	58356.23994
495.299	58356.23994
495.482	58356.23994
495.664	58356.23994
495.847	58356.23994
496.029	58356.23994
496.212	58356.23994
496.394	58356.23994
496.576	58356.23994
496.759	58356.23994
496.941	58356.23994
497.123	58356.23994
497.306	58356.23994
497.488	58356.23994
497.67	58356.23994
497.853	58356.23994
498.035	58356.23994
498.217	58356.23994
498.4	58356.23994
498.582	58356.23994
498.764	58356.23994
498.946	58356.23994
499.128	58356.23994
499.311	58356.23994
499.493	58356.23994
499.675	58356.23994
499.857	58356.23994
500.039	58356.23994
500.221	58356.23994
500.403	58356.23994
500.585	58356.23994
500.767	58356.23994
500.949	58356.23994
501.132	58356.23994
501.314	58356.23994
501.496	58356.23994
501.678	58356.23994
501.859	58356.23994
502.041	58356.23994
502.223	58356.23994
502.405	58356.23994
502.587	58356.23994
502.769	58356.23994
502.951	58356.23994
503.133	58356.23994
503.315	58356.23994
503.497	58356.23994
503.678	58356.23994
503.86	58356.23994
504.042	58356.23994
504.224	58356.23994
504.406	58356.23994
504.587	58356.23994
504.769	58356.23994
504.951	58356.23994
505.132	58356.23994
505.314	58356.23994
505.496	58356.23994
505.678	58356.23994
505.859	58356.23994
506.041	58356.23994
506.222	58356.23994
506.404	58356.23994
506.586	58356.23994
506.767	58356.23994
506.949	58356.23994
507.13	58356.23994
507.312	58356.23994
507.493	58356.23994
507.675	58356.23994
507.856	58356.23994
508.038	58356.23994
508.219	58356.23994
508.401	58356.23994
508.582	58356.23994
508.764	58356.23994
508.945	58356.23994
509.126	58356.23994
509.308	58356.23994
509.489	58356.23994
509.671	58356.23994
509.852	58356.23994
510.033	58356.23994
510.214	58356.23994
510.396	58356.23994
510.577	58356.23994
510.758	58356.23994
510.94	58356.23994
511.121	58356.23994
511.302	58356.23994
511.483	58356.23994
511.664	58356.23994
511.846	58356.23994
512.027	58356.23994
512.208	58356.23994
512.389	58356.23994
512.57	58356.23994
512.751	58356.23994
512.932	58356.23994
513.113	58356.23994
513.294	58356.23994
513.476	58356.23994
513.657	58356.23994
513.838	58356.23994
514.019	58356.23994
514.2	58356.23994
514.381	58356.23994
514.561	58356.23994
514.742	58356.23994
514.923	58356.23994
515.104	58356.23994
515.285	58356.23994
515.466	58356.23994
515.647	58356.23994
515.828	58356.23994
516.009	58356.23994
516.189	58356.23994
516.37	58356.23994
516.551	58356.23994
516.732	58356.23994
516.913	58356.23994
517.093	58356.23994
517.274	58356.23994
517.455	58356.23994
517.636	58356.23994
517.816	58356.23994
517.997	58356.23994
518.178	58356.23994
518.358	58356.23994
518.539	58356.23994
518.72	58356.23994
518.9	58356.23994
519.081	58356.23994
519.261	58356.23994
519.442	58356.23994
519.622	58356.23994
519.803	58356.23994
519.984	58356.23994
520.164	58356.23994
520.345	58356.23994
520.525	58356.23994
520.705	58356.23994
520.886	58356.23994
521.066	58356.23994
521.247	58356.23994
521.427	58356.23994
521.608	58356.23994
521.788	58356.23994
521.968	58356.23994
522.149	58356.23994
522.329	58356.23994
522.509	58356.23994
522.69	58356.23994
522.87	58356.23994
523.05	58356.23994
523.231	58356.23994
523.411	58356.23994
523.591	58356.23994
523.771	58356.23994
523.951	58356.23994
524.132	58356.23994
524.312	58356.23994
524.492	58356.23994
524.672	58356.23994
524.852	58356.23994
525.032	58356.23994
525.213	58356.23994
525.393	58356.23994
525.573	58356.23994
525.753	58356.23994
525.933	58356.23994
526.113	58356.23994
526.293	58356.23994
526.473	58356.23994
526.653	58356.23994
526.833	58356.23994
527.013	58356.23994
527.193	58356.23994
527.373	58356.23994
527.553	58356.23994
527.733	58356.23994
527.913	58356.23994
528.092	58356.23994
528.272	58356.23994
528.452	58356.23994
528.632	58356.23994
528.812	58356.23994
528.992	58356.23994
529.171	58356.23994
529.351	58356.23994
529.531	58356.23994
529.711	58356.23994
529.89	58356.23994
530.07	58356.23994
530.25	58356.23994
530.43	58356.23994
530.609	58356.23994
530.789	58356.23994
530.969	58356.23994
531.148	58356.23994
531.328	58356.23994
531.507	58356.23994
531.687	58356.23994
531.867	58356.23994
532.046	58356.23994
532.226	58356.23994
532.405	58356.23994
532.585	58356.23994
532.764	58356.23994
532.944	58356.23994
533.123	58356.23994
533.303	58356.23994
533.482	58356.23994
533.662	58356.23994
533.841	58356.23994
534.021	58356.23994
534.2	58356.23994
534.379	58356.23994
534.559	58356.23994
534.738	58356.23994
534.917	58356.23994
535.097	58356.23994
535.276	58356.23994
535.455	58356.23994
535.635	58356.23994
535.814	58356.23994
535.993	58356.23994
536.172	58356.23994
536.352	58356.23994
536.531	58356.23994
536.71	58356.23994
536.889	58356.23994
537.068	58356.23994
537.248	58356.23994
537.427	58356.23994
537.606	58356.23994
537.785	58356.23994
537.964	58356.23994
538.143	58356.23994
538.322	58356.23994
538.501	58356.23994
538.68	58356.23994
538.859	58356.23994
539.038	58356.23994
539.217	58356.23994
539.396	58356.23994
539.575	58356.23994
539.754	58356.23994
539.933	58356.23994
540.112	58356.23994
540.291	58356.23994
540.47	58356.23994
540.649	58356.23994
540.828	58356.23994
541.007	58356.23994
541.186	58356.23994
541.364	58356.23994
541.543	58356.23994
541.722	58356.23994
541.901	58356.23994
542.08	58356.23994
542.258	58356.23994
542.437	58356.23994
542.616	58356.23994
542.795	58356.23994
542.973	58356.23994
543.152	58356.23994
543.331	58356.23994
543.509	58356.23994
543.688	58356.23994
543.867	58356.23994
544.045	58356.23994
544.224	58356.23994
544.402	58356.23994
544.581	58356.23994
544.76	58356.23994
544.938	58356.23994
545.117	58356.23994
545.295	58356.23994
545.474	58356.23994
545.652	58356.23994
545.831	58356.23994
546.009	58356.23994
546.188	58356.23994
546.366	58356.23994
546.544	58356.23994
546.723	58356.23994
546.901	58356.23994
547.08	58356.23994
547.258	58356.23994
547.436	58356.23994
547.615	58356.23994
547.793	58356.23994
547.971	58356.23994
548.15	58356.23994
548.328	58356.23994
548.506	58356.23994
548.684	58356.23994
548.863	58356.23994
549.041	58356.23994
549.219	58356.23994
549.397	58356.23994
549.576	58356.23994
549.754	58356.23994
549.932	58356.23994
550.11	58356.23994
550.288	58356.23994
550.466	58356.23994
550.644	58356.23994
550.822	58356.23994
551.001	58356.23994
551.179	58356.23994
551.357	58356.23994
551.535	58356.23994
551.713	58356.23994
551.891	58356.23994
552.069	58356.23994
552.247	58356.23994
552.425	58356.23994
552.603	58356.23994
552.781	58356.23994
552.958	58356.23994
553.136	58356.23994
553.314	58356.23994
553.492	58356.23994
553.67	58356.23994
553.848	58356.23994
554.026	58356.23994
554.204	58356.23994
554.381	58356.23994
554.559	58356.23994
554.737	58356.23994
554.915	58356.23994
555.092	58356.23994
555.27	58356.23994
555.448	58356.23994
555.626	58356.23994
555.803	58356.23994
555.981	58356.23994
556.159	58356.23994
556.336	58356.23994
556.514	58356.23994
556.692	58356.23994
556.869	58356.23994
557.047	58356.23994
557.224	58356.23994
557.402	58356.23994
557.58	58356.23994
557.757	58356.23994
557.935	58356.23994
558.112	58356.23994
558.29	58356.23994
558.467	58356.23994
558.645	58356.23994
558.822	58356.23994
559	58356.23994
559.177	58356.23994
559.354	58356.23994
559.532	58356.23994
559.709	58356.23994
559.887	58356.23994
560.064	58356.23994
560.241	58356.23994
560.419	58356.23994
560.596	58356.23994
560.773	58356.23994
560.951	58356.23994
561.128	58356.23994
561.305	58356.23994
561.482	58356.23994
561.66	58356.23994
561.837	58356.23994
562.014	58356.23994
562.191	58356.23994
562.368	58356.23994
562.546	58356.23994
562.723	58356.23994
562.9	58356.23994
563.077	58356.23994
563.254	58356.23994
563.431	58356.23994
563.608	58356.23994
563.785	58356.23994
563.962	58356.23994
564.139	58356.23994
564.317	58356.23994
564.494	58356.23994
564.671	58356.23994
564.848	58356.23994
565.025	58356.23994
565.201	58356.23994
565.378	58356.23994
565.555	58356.23994
565.732	58356.23994
565.909	58356.23994
566.086	58356.23994
566.263	58356.23994
566.44	58356.23994
566.617	58356.23994
566.794	58356.23994
566.97	58356.23994
567.147	58356.23994
567.324	58356.23994
567.501	58356.23994
567.678	58356.23994
567.854	58356.23994
568.031	58356.23994
568.208	58356.23994
568.384	58356.23994
568.561	58356.23994
568.738	58356.23994
568.915	58356.23994
569.091	58356.23994
569.268	58356.23994
569.444	58356.23994
569.621	58356.23994
569.798	58356.23994
569.974	58356.23994
570.151	58356.23994
570.327	58356.23994
570.504	58356.23994
570.681	58356.23994
570.857	58356.23994
571.034	58356.23994
571.21	58356.23994
571.387	58356.23994
571.563	58356.23994
571.739	58356.23994
571.916	58356.23994
572.092	58356.23994
572.269	58356.23994
572.445	58356.23994
572.622	58356.23994
572.798	58356.23994
572.974	58356.23994
573.151	58356.23994
573.327	58356.23994
573.503	58356.23994
573.68	58356.23994
573.856	58356.23994
574.032	58356.23994
574.208	58356.23994
574.385	58356.23994
574.561	58356.23994
574.737	58356.23994
574.913	58356.23994
575.089	58356.23994
575.266	58356.23994
575.442	58356.23994
575.618	58356.23994
575.794	58356.23994
575.97	58356.23994
576.146	58356.23994
576.322	58356.23994
576.499	58356.23994
576.675	58356.23994
576.851	58356.23994
577.027	58356.23994
577.203	58356.23994
577.379	58356.23994
577.555	58356.23994
577.731	58356.23994
577.907	58356.23994
578.083	58356.23994
578.259	58356.23994
578.435	58356.23994
578.611	58356.23994
578.786	58356.23994
578.962	58356.23994
579.138	58356.23994
579.314	58356.23994
579.49	58356.23994
579.666	58356.23994
579.842	58356.23994
580.017	58356.23994
580.193	58356.23994
580.369	58356.23994
580.545	58356.23994
580.72	58356.23994
580.896	58356.23994
581.072	58356.23994
581.248	58356.23994
581.423	58356.23994
581.599	58356.23994
581.775	58356.23994
581.95	58356.23994
582.126	58356.23994
582.302	58356.23994
582.477	58356.23994
582.653	58356.23994
582.829	58356.23994
583.004	58356.23994
583.18	58356.23994
583.355	58356.23994
583.531	58356.23994
583.706	58356.23994
583.882	58356.23994
584.057	58356.23994
584.233	58356.23994
584.408	58356.23994
584.584	58356.23994
584.759	58356.23994
584.935	58356.23994
585.11	58356.23994
585.285	58356.23994
585.461	58356.23994
585.636	58356.23994
585.812	58356.23994
585.987	58356.23994
586.162	58356.23994
586.338	58356.23994
586.513	58356.23994
586.688	58356.23994
586.863	58356.23994
587.039	58356.23994
587.214	58356.23994
587.389	58356.23994
587.564	58356.23994
587.74	58356.23994
587.915	58356.23994
588.09	58356.23994
588.265	58356.23994
588.44	58356.23994
588.615	58356.23994
588.791	58356.23994
588.966	58356.23994
589.141	58356.23994
589.316	58356.23994
589.491	58356.23994
589.666	58356.23994
589.841	58356.23994
590.016	58356.23994
590.191	58356.23994
590.366	58356.23994
590.541	58356.23994
590.716	58356.23994
590.891	58356.23994
591.066	58356.23994
591.241	58356.23994
591.416	58356.23994
591.591	58356.23994
591.766	58356.23994
591.941	58356.23994
592.116	58356.23994
592.29	58356.23994
592.465	58356.23994
592.64	58356.23994
592.815	58356.23994
592.99	58356.23994
593.165	58356.23994
593.339	58356.23994
593.514	58356.23994
593.689	58356.23994
593.864	58356.23994
594.038	58356.23994
594.213	58356.23994
594.388	58356.23994
594.562	58356.23994
594.737	58356.23994
594.912	58356.23994
595.086	58356.23994
595.261	58356.23994
595.436	58356.23994
595.61	58356.23994
595.785	58356.23994
595.959	58356.23994
596.134	58356.23994
596.309	58356.23994
596.483	58356.23994
596.658	58356.23994
596.832	58356.23994
597.007	58356.23994
597.181	58356.23994
597.356	58356.23994
597.53	58356.23994
597.704	58356.23994
597.879	58356.23994
598.053	58356.23994
598.228	58356.23994
598.402	58356.23994
598.576	58356.23994
598.751	58356.23994
598.925	58356.23994
599.1	58356.23994
599.274	58356.23994
599.448	58356.23994
599.622	58356.23994
599.797	58356.23994
599.971	58356.23994
600.145	58356.23994
600.32	58356.23994
600.494	58356.23994
600.668	58356.23994
600.842	58356.23994
601.016	58356.23994
601.191	58356.23994
601.365	58356.23994
601.539	58356.23994
601.713	58356.23994
601.887	58356.23994
602.061	58356.23994
602.235	58356.23994
602.409	58356.23994
602.583	58356.23994
602.758	58356.23994
602.932	58356.23994
603.106	58356.23994
603.28	58356.23994
603.454	58356.23994
603.628	58356.23994
603.802	58356.23994
603.976	58356.23994
604.149	58356.23994
604.323	58356.23994
604.497	58356.23994
604.671	58356.23994
604.845	58356.23994
605.019	58356.23994
605.193	58356.23994
605.367	58356.23994
605.541	58356.23994
605.714	58356.23994
605.888	58356.23994
606.062	58356.23994
606.236	58356.23994
606.41	58356.23994
606.583	58356.23994
606.757	58356.23994
606.931	58356.23994
607.105	58356.23994
607.278	58356.23994
607.452	58356.23994
607.626	58356.23994
607.799	58356.23994
607.973	58356.23994
608.147	58356.23994
608.32	58356.23994
608.494	58356.23994
608.668	58356.23994
608.841	58356.23994
609.015	58356.23994
609.188	58356.23994
609.362	58356.23994
609.535	58356.23994
609.709	58356.23994
609.882	58356.23994
610.056	58356.23994
610.229	58356.23994
610.403	58356.23994
610.576	58356.23994
610.75	58356.23994
610.923	58356.23994
611.097	58356.23994
611.27	58356.23994
611.443	58356.23994
611.617	58356.23994
611.79	58356.23994
611.963	58356.23994
612.137	58356.23994
612.31	58356.23994
612.483	58356.23994
612.657	58356.23994
612.83	58356.23994
613.003	58356.23994
613.177	58356.23994
613.35	58356.23994
613.523	58356.23994
613.696	58356.23994
613.869	58356.23994
614.043	58356.23994
614.216	58356.23994
614.389	58356.23994
614.562	58356.23994
614.735	58356.23994
614.908	58356.23994
615.082	58356.23994
615.255	58356.23994
615.428	58356.23994
615.601	58356.23994
615.774	58356.23994
615.947	58356.23994
616.12	58356.23994
616.293	58356.23994
616.466	58356.23994
616.639	58356.23994
616.812	58356.23994
616.985	58356.23994
617.158	58356.23994
617.331	58356.23994
617.504	58356.23994
617.677	58356.23994
617.85	58356.23994
618.022	58356.23994
618.195	58356.23994
618.368	58356.23994
618.541	58356.23994
618.714	58356.23994
618.887	58356.23994
619.059	58356.23994
619.232	58356.23994
619.405	58356.23994
619.578	58356.23994
619.751	58356.23994
619.923	58356.23994
620.096	58356.23994
620.269	58356.23994
620.441	58356.23994
620.614	58356.23994
620.787	58356.23994
620.96	58356.23994
621.132	58356.23994
621.305	58356.23994
621.477	58356.23994
621.65	58356.23994
621.823	58356.23994
621.995	58356.23994
622.168	58356.23994
622.34	58356.23994
622.513	58356.23994
622.685	58356.23994
622.858	58356.23994
623.03	58356.23994
623.203	58356.23994
623.375	58356.23994
623.548	58356.23994
623.72	58356.23994
623.893	58356.23994
624.065	58356.23994
624.238	58356.23994
624.41	58356.23994
624.582	58356.23994
624.755	58356.23994
624.927	58356.23994
625.1	58356.23994
625.272	58356.23994
625.444	58356.23994
625.617	58356.23994
625.789	58356.23994
625.961	58356.23994
626.133	58356.23994
626.306	58356.23994
626.478	58356.23994
626.65	58356.23994
626.822	58356.23994
626.995	58356.23994
627.167	58356.23994
627.339	58356.23994
627.511	58356.23994
627.683	58356.23994
627.855	58356.23994
628.027	58356.23994
628.2	58356.23994
628.372	58356.23994
628.544	58356.23994
628.716	58356.23994
628.888	58356.23994
629.06	58356.23994
629.232	58356.23994
629.404	58356.23994
629.576	58356.23994
629.748	58356.23994
629.92	58356.23994
630.092	58356.23994
630.264	58356.23994
630.436	58356.23994
630.608	58356.23994
630.78	58356.23994
630.952	58356.23994
631.124	58356.23994
631.295	58356.23994
631.467	58356.23994
631.639	58356.23994
631.811	58356.23994
631.983	58356.23994
632.155	58356.23994
632.326	58356.23994
632.498	58356.23994
632.67	58356.23994
632.842	58356.23994
633.014	58356.23994
633.185	58356.23994
633.357	58356.23994
633.529	58356.23994
633.7	58356.23994
633.872	58356.23994
634.044	58356.23994
634.215	58356.23994
634.387	58356.23994
634.559	58356.23994
634.73	58356.23994
634.902	58356.23994
635.074	58356.23994
635.245	58356.23994
635.417	58356.23994
635.588	58356.23994
635.76	58356.23994
635.931	58356.23994
636.103	58356.23994
636.274	58356.23994
636.446	58356.23994
636.617	58356.23994
636.789	58356.23994
636.96	58356.23994
637.132	58356.23994
637.303	58356.23994
637.474	58356.23994
637.646	58356.23994
637.817	58356.23994
637.989	58356.23994
638.16	58356.23994
638.331	58356.23994
638.503	58356.23994
638.674	58356.23994
638.845	58356.23994
639.017	58356.23994
639.188	58356.23994
639.359	58356.23994
639.53	58356.23994
639.702	58356.23994
639.873	58356.23994
640.044	58356.23994
640.215	58356.23994
640.387	58356.23994
640.558	58356.23994
640.729	58356.23994
640.9	58356.23994
641.071	58356.23994
641.242	58356.23994
641.413	58356.23994
641.585	58356.23994
641.756	58356.23994
641.927	58356.23994
642.098	58356.23994
642.269	58356.23994
642.44	58356.23994
642.611	58356.23994
642.782	58356.23994
642.953	58356.23994
643.124	58356.23994
643.295	58356.23994
643.466	58356.23994
643.637	58356.23994
643.808	58356.23994
643.979	58356.23994
644.15	58356.23994
644.32	58356.23994
644.491	58356.23994
644.662	58356.23994
644.833	58356.23994
645.004	58356.23994
645.175	58356.23994
645.346	58356.23994
645.516	58356.23994
645.687	58356.23994
645.858	58356.23994
646.029	58356.23994
646.199	58356.23994
646.37	58356.23994
646.541	58356.23994
646.712	58356.23994
646.882	58356.23994
647.053	58356.23994
647.224	58356.23994
647.394	58356.23994
647.565	58356.23994
647.736	58356.23994
647.906	58356.23994
648.077	58356.23994
648.248	58356.23994
648.418	58356.23994
648.589	58356.23994
648.759	58356.23994
648.93	58356.23994
649.1	58356.23994
649.271	58356.23994
649.441	58356.23994
649.612	58356.23994
649.782	58356.23994
649.953	58356.23994
650.123	58356.23994
650.294	58356.23994
650.464	58356.23994
650.635	58356.23994
650.805	58356.23994
650.975	58356.23994
651.146	58356.23994
651.316	58356.23994
651.487	58356.23994
651.657	58356.23994
651.827	58356.23994
651.998	58356.23994
652.168	58356.23994
652.338	58356.23994
652.508	58356.23994
652.679	58356.23994
652.849	58356.23994
653.019	58356.23994
653.189	58356.23994
653.36	58356.23994
653.53	58356.23994
653.7	58356.23994
653.87	58356.23994
654.04	58356.23994
654.211	58356.23994
654.381	58356.23994
654.551	58356.23994
654.721	58356.23994
654.891	58356.23994
655.061	58356.23994
655.231	58356.23994
655.401	58356.23994
655.571	58356.23994
655.741	58356.23994
655.911	58356.23994
656.081	58356.23994
656.251	58356.23994
656.421	58356.23994
656.591	58356.23994
656.761	58356.23994
656.931	58356.23994
657.101	58356.23994
657.271	58356.23994
657.441	58356.23994
657.611	58356.23994
657.781	58356.23994
657.951	58356.23994
658.121	58356.23994
658.291	58356.23994
658.46	58356.23994
658.63	58356.23994
658.8	58356.23994
658.97	58356.23994
659.14	58356.23994
659.309	58356.23994
659.479	58356.23994
659.649	58356.23994
659.819	58356.23994
659.988	58356.23994
660.158	58356.23994
660.328	58356.23994
660.497	58356.23994
660.667	58356.23994
660.837	58356.23994
661.006	58356.23994
661.176	58356.23994
661.346	58356.23994
661.515	58356.23994
661.685	58356.23994
661.854	58356.23994
662.024	58356.23994
662.194	58356.23994
662.363	58356.23994
662.533	58356.23994
662.702	58356.23994
662.872	58356.23994
663.041	58356.23994
663.211	58356.23994
663.38	58356.23994
663.55	58356.23994
663.719	58356.23994
663.889	58356.23994
664.058	58356.23994
664.227	58356.23994
664.397	58356.23994
664.566	58356.23994
664.735	58356.23994
664.905	58356.23994
665.074	58356.23994
665.244	58356.23994
665.413	58356.23994
665.582	58356.23994
665.751	58356.23994
665.921	58356.23994
666.09	58356.23994
666.259	58356.23994
666.428	58356.23994
666.598	58356.23994
666.767	58356.23994
666.936	58356.23994
667.105	58356.23994
667.275	58356.23994
667.444	58356.23994
667.613	58356.23994
667.782	58356.23994
667.951	58356.23994
668.12	58356.23994
668.289	58356.23994
668.458	58356.23994
668.628	58356.23994
668.797	58356.23994
668.966	58356.23994
669.135	58356.23994
669.304	58356.23994
669.473	58356.23994
669.642	58356.23994
669.811	58356.23994
669.98	58356.23994
670.149	58356.23994
670.318	58356.23994
670.487	58356.23994
670.656	58356.23994
670.824	58356.23994
670.993	58356.23994
671.162	58356.23994
671.331	58356.23994
671.5	58356.23994
671.669	58356.23994
671.838	58356.23994
672.007	58356.23994
672.175	58356.23994
672.344	58356.23994
672.513	58356.23994
672.682	58356.23994
672.85	58356.23994
673.019	58356.23994
673.188	58356.23994
673.357	58356.23994
673.525	58356.23994
673.694	58356.23994
673.863	58356.23994
674.032	58356.23994
674.2	58356.23994
674.369	58356.23994
674.537	58356.23994
674.706	58356.23994
674.875	58356.23994
675.043	58356.23994
675.212	58356.23994
675.381	58356.23994
675.549	58356.23994
675.718	58356.23994
675.886	58356.23994
676.055	58356.23994
676.223	58356.23994
676.392	58356.23994
676.56	58356.23994
676.729	58356.23994
676.897	58356.23994
677.066	58356.23994
677.234	58356.23994
677.403	58356.23994
677.571	58356.23994
677.739	58356.23994
677.908	58356.23994
678.076	58356.23994
678.244	58356.23994
678.413	58356.23994
678.581	58356.23994
678.75	58356.23994
678.918	58356.23994
679.086	58356.23994
679.254	58356.23994
679.423	58356.23994
679.591	58356.23994
679.759	58356.23994
679.928	58356.23994
680.096	58356.23994
680.264	58356.23994
680.432	58356.23994
680.6	58356.23994
680.769	58356.23994
680.937	58356.23994
681.105	58356.23994
681.273	58356.23994
681.441	58356.23994
681.609	58356.23994
681.777	58356.23994
681.945	58356.23994
682.114	58356.23994
682.282	58356.23994
682.45	58356.23994
682.618	58356.23994
682.786	58356.23994
682.954	58356.23994
683.122	58356.23994
683.29	58356.23994
683.458	58356.23994
683.626	58356.23994
683.794	58356.23994
683.962	58356.23994
684.13	58356.23994
684.298	58356.23994
684.465	58356.23994
684.633	58356.23994
684.801	58356.23994
684.969	58356.23994
685.137	58356.23994
685.305	58356.23994
685.473	58356.23994
685.64	58356.23994
685.808	58356.23994
685.976	58356.23994
686.144	58356.23994
686.312	58356.23994
686.479	58356.23994
686.647	58356.23994
686.815	58356.23994
686.983	58356.23994
687.15	58356.23994
687.318	58356.23994
687.486	58356.23994
687.653	58356.23994
687.821	58356.23994
687.989	58356.23994
688.156	58356.23994
688.324	58356.23994
688.492	58356.23994
688.659	58356.23994
688.827	58356.23994
688.994	58356.23994
689.162	58356.23994
689.329	58356.23994
689.497	58356.23994
689.665	58356.23994
689.832	58356.23994
690	58356.23994
690.167	58356.23994
690.335	58356.23994
690.502	58356.23994
690.669	58356.23994
690.837	58356.23994
691.004	58356.23994
691.172	58356.23994
691.339	58356.23994
691.507	58356.23994
691.674	58356.23994
691.841	58356.23994
692.009	58356.23994
692.176	58356.23994
692.343	58356.23994
692.511	58356.23994
692.678	58356.23994
692.845	58356.23994
693.013	58356.23994
693.18	58356.23994
693.347	58356.23994
693.514	58356.23994
693.682	58356.23994
693.849	58356.23994
694.016	58356.23994
694.183	58356.23994
694.35	58356.23994
694.518	58356.23994
694.685	58356.23994
694.852	58356.23994
695.019	58356.23994
695.186	58356.23994
695.353	58356.23994
695.52	58356.23994
695.687	58356.23994
695.855	58356.23994
696.022	58356.23994
696.189	58356.23994
696.356	58356.23994
696.523	58356.23994
696.69	58356.23994
696.857	58356.23994
697.024	58356.23994
697.191	58356.23994
697.358	58356.23994
697.525	58356.23994
697.692	58356.23994
697.858	58356.23994
698.025	58356.23994
698.192	58356.23994
698.359	58356.23994
698.526	58356.23994
698.693	58356.23994
698.86	58356.23994
699.027	58356.23994
699.193	58356.23994
699.36	58356.23994
699.527	58356.23994
699.694	58356.23994
699.861	58356.23994
700.027	58356.23994
700.194	58356.23994
700.361	58356.23994
700.528	58356.23994
700.694	58356.23994
700.861	58356.23994
701.028	58356.23994
701.195	58356.23994
701.361	58356.23994
701.528	58356.23994
701.694	58356.23994
701.861	58356.23994
702.028	58356.23994
702.194	58356.23994
702.361	58356.23994
702.528	58356.23994
702.694	58356.23994
702.861	58356.23994
703.027	58356.23994
703.194	58356.23994
703.36	58356.23994
703.527	58356.23994
703.693	58356.23994
703.86	58356.23994
704.026	58356.23994
704.193	58356.23994
704.359	58356.23994
704.526	58356.23994
