Created as New Dataset,Sample 001 By Administrator Date Tuesday, October 21 2025
cm-1,%T
4000.00,84.23
3999.00,84.23
3998.00,84.22
3997.00,84.21
3996.00,84.21
3995.00,84.22
3994.00,84.23
3993.00,84.23
3992.00,84.23
3991.00,84.23
3990.00,84.24
3989.00,84.24
3988.00,84.24
3987.00,84.24
3986.00,84.23
3985.00,84.23
3984.00,84.23
3983.00,84.23
3982.00,84.23
3981.00,84.23
3980.00,84.24
3979.00,84.24
3978.00,84.24
3977.00,84.23
3976.00,84.23
3975.00,84.22
3974.00,84.22
3973.00,84.22
3972.00,84.22
3971.00,84.23
3970.00,84.23
3969.00,84.24
3968.00,84.24
3967.00,84.24
3966.00,84.24
3965.00,84.24
3964.00,84.24
3963.00,84.24
3962.00,84.25
3961.00,84.25
3960.00,84.24
3959.00,84.24
3958.00,84.23
3957.00,84.23
3956.00,84.22
3955.00,84.22
3954.00,84.21
3953.00,84.21
3952.00,84.21
3951.00,84.23
3950.00,84.24
3949.00,84.27
3948.00,84.31
3947.00,84.33
3946.00,84.32
3945.00,84.28
3944.00,84.25
3943.00,84.25
3942.00,84.28
3941.00,84.29
3940.00,84.27
3939.00,84.26
3938.00,84.26
3937.00,84.27
3936.00,84.28
3935.00,84.28
3934.00,84.27
3933.00,84.26
3932.00,84.25
3931.00,84.24
3930.00,84.24
3929.00,84.25
3928.00,84.25
3927.00,84.22
3926.00,84.20
3925.00,84.22
3924.00,84.28
3923.00,84.33
3922.00,84.36
3921.00,84.37
3920.00,84.37
3919.00,84.35
3918.00,84.32
3917.00,84.29
3916.00,84.29
3915.00,84.29
3914.00,84.27
3913.00,84.26
3912.00,84.26
3911.00,84.27
3910.00,84.29
3909.00,84.30
3908.00,84.30
3907.00,84.30
3906.00,84.33
3905.00,84.43
3904.00,84.56
3903.00,84.65
3902.00,84.64
3901.00,84.55
3900.00,84.45
3899.00,84.40
3898.00,84.38
3897.00,84.37
3896.00,84.36
3895.00,84.36
3894.00,84.37
3893.00,84.39
3892.00,84.43
3891.00,84.48
3890.00,84.52
3889.00,84.51
3888.00,84.49
3887.00,84.49
3886.00,84.51
3885.00,84.50
3884.00,84.43
3883.00,84.31
3882.00,84.21
3881.00,84.22
3880.00,84.31
3879.00,84.42
3878.00,84.45
3877.00,84.39
3876.00,84.32
3875.00,84.31
3874.00,84.40
3873.00,84.51
3872.00,84.58
3871.00,84.60
3870.00,84.61
3869.00,84.61
3868.00,84.56
3867.00,84.49
3866.00,84.45
3865.00,84.46
3864.00,84.45
3863.00,84.43
3862.00,84.44
3861.00,84.47
3860.00,84.46
3859.00,84.34
3858.00,84.12
3857.00,83.87
3856.00,83.76
3855.00,83.85
3854.00,83.99
3853.00,84.07
3852.00,84.11
3851.00,84.16
3850.00,84.22
3849.00,84.31
3848.00,84.38
3847.00,84.40
3846.00,84.38
3845.00,84.37
3844.00,84.40
3843.00,84.45
3842.00,84.47
3841.00,84.47
3840.00,84.50
3839.00,84.56
3838.00,84.55
3837.00,84.48
3836.00,84.43
3835.00,84.44
3834.00,84.47
3833.00,84.48
3832.00,84.47
3831.00,84.45
3830.00,84.41
3829.00,84.33
3828.00,84.26
3827.00,84.27
3826.00,84.37
3825.00,84.48
3824.00,84.55
3823.00,84.57
3822.00,84.57
3821.00,84.56
3820.00,84.53
3819.00,84.47
3818.00,84.41
3817.00,84.36
3816.00,84.32
3815.00,84.27
3814.00,84.24
3813.00,84.26
3812.00,84.33
3811.00,84.41
3810.00,84.45
3809.00,84.46
3808.00,84.47
3807.00,84.50
3806.00,84.51
3805.00,84.46
3804.00,84.39
3803.00,84.37
3802.00,84.38
3801.00,84.35
3800.00,84.28
3799.00,84.22
3798.00,84.22
3797.00,84.28
3796.00,84.35
3795.00,84.38
3794.00,84.35
3793.00,84.31
3792.00,84.29
3791.00,84.29
3790.00,84.29
3789.00,84.27
3788.00,84.24
3787.00,84.20
3786.00,84.17
3785.00,84.20
3784.00,84.27
3783.00,84.31
3782.00,84.28
3781.00,84.21
3780.00,84.19
3779.00,84.24
3778.00,84.30
3777.00,84.33
3776.00,84.32
3775.00,84.34
3774.00,84.36
3773.00,84.35
3772.00,84.32
3771.00,84.33
3770.00,84.39
3769.00,84.44
3768.00,84.43
3767.00,84.39
3766.00,84.37
3765.00,84.40
3764.00,84.43
3763.00,84.41
3762.00,84.37
3761.00,84.35
3760.00,84.35
3759.00,84.38
3758.00,84.42
3757.00,84.44
3756.00,84.42
3755.00,84.38
3754.00,84.36
3753.00,84.37
3752.00,84.32
3751.00,84.22
3750.00,84.15
3749.00,84.17
3748.00,84.15
3747.00,84.03
3746.00,83.93
3745.00,83.92
3744.00,83.98
3743.00,84.09
3742.00,84.23
3741.00,84.36
3740.00,84.46
3739.00,84.54
3738.00,84.58
3737.00,84.60
3736.00,84.63
3735.00,84.64
3734.00,84.61
3733.00,84.56
3732.00,84.51
3731.00,84.48
3730.00,84.46
3729.00,84.45
3728.00,84.46
3727.00,84.47
3726.00,84.46
3725.00,84.42
3724.00,84.37
3723.00,84.34
3722.00,84.35
3721.00,84.36
3720.00,84.36
3719.00,84.36
3718.00,84.40
3717.00,84.46
3716.00,84.50
3715.00,84.52
3714.00,84.54
3713.00,84.55
3712.00,84.51
3711.00,84.45
3710.00,84.42
3709.00,84.42
3708.00,84.43
3707.00,84.42
3706.00,84.41
3705.00,84.38
3704.00,84.33
3703.00,84.29
3702.00,84.30
3701.00,84.34
3700.00,84.37
3699.00,84.35
3698.00,84.32
3697.00,84.32
3696.00,84.34
3695.00,84.36
3694.00,84.36
3693.00,84.35
3692.00,84.37
3691.00,84.42
3690.00,84.48
3689.00,84.50
3688.00,84.42
3687.00,84.32
3686.00,84.28
3685.00,84.30
3684.00,84.36
3683.00,84.39
3682.00,84.37
3681.00,84.36
3680.00,84.41
3679.00,84.54
3678.00,84.69
3677.00,84.78
3676.00,84.78
3675.00,84.72
3674.00,84.68
3673.00,84.69
3672.00,84.72
3671.00,84.71
3670.00,84.61
3669.00,84.49
3668.00,84.41
3667.00,84.39
3666.00,84.38
3665.00,84.36
3664.00,84.34
3663.00,84.32
3662.00,84.31
3661.00,84.33
3660.00,84.39
3659.00,84.46
3658.00,84.51
3657.00,84.54
3656.00,84.57
3655.00,84.59
3654.00,84.60
3653.00,84.66
3652.00,84.83
3651.00,85.02
3650.00,85.05
3649.00,84.86
3648.00,84.61
3647.00,84.45
3646.00,84.39
3645.00,84.37
3644.00,84.33
3643.00,84.29
3642.00,84.26
3641.00,84.25
3640.00,84.24
3639.00,84.24
3638.00,84.27
3637.00,84.31
3636.00,84.33
3635.00,84.34
3634.00,84.39
3633.00,84.45
3632.00,84.52
3631.00,84.61
3630.00,84.70
3629.00,84.70
3628.00,84.59
3627.00,84.45
3626.00,84.37
3625.00,84.36
3624.00,84.39
3623.00,84.43
3622.00,84.46
3621.00,84.50
3620.00,84.51
3619.00,84.48
3618.00,84.43
3617.00,84.39
3616.00,84.36
3615.00,84.36
3614.00,84.41
3613.00,84.48
3612.00,84.52
3611.00,84.49
3610.00,84.42
3609.00,84.35
3608.00,84.31
3607.00,84.29
3606.00,84.28
3605.00,84.27
3604.00,84.22
3603.00,84.15
3602.00,84.09
3601.00,84.08
3600.00,84.12
3599.00,84.16
3598.00,84.20
3597.00,84.22
3596.00,84.24
3595.00,84.24
3594.00,84.26
3593.00,84.30
3592.00,84.34
3591.00,84.35
3590.00,84.34
3589.00,84.33
3588.00,84.33
3587.00,84.33
3586.00,84.32
3585.00,84.29
3584.00,84.24
3583.00,84.20
3582.00,84.17
3581.00,84.16
3580.00,84.15
3579.00,84.13
3578.00,84.12
3577.00,84.12
3576.00,84.13
3575.00,84.14
3574.00,84.16
3573.00,84.21
3572.00,84.25
3571.00,84.29
3570.00,84.32
3569.00,84.31
3568.00,84.29
3567.00,84.25
3566.00,84.22
3565.00,84.20
3564.00,84.18
3563.00,84.16
3562.00,84.15
3561.00,84.15
3560.00,84.15
3559.00,84.15
3558.00,84.14
3557.00,84.14
3556.00,84.14
3555.00,84.11
3554.00,84.07
3553.00,84.06
3552.00,84.09
3551.00,84.13
3550.00,84.16
3549.00,84.17
3548.00,84.17
3547.00,84.17
3546.00,84.15
3545.00,84.14
3544.00,84.14
3543.00,84.14
3542.00,84.14
3541.00,84.14
3540.00,84.14
3539.00,84.13
3538.00,84.11
3537.00,84.12
3536.00,84.13
3535.00,84.14
3534.00,84.13
3533.00,84.12
3532.00,84.10
3531.00,84.08
3530.00,84.06
3529.00,84.06
3528.00,84.08
3527.00,84.12
3526.00,84.13
3525.00,84.13
3524.00,84.11
3523.00,84.10
3522.00,84.10
3521.00,84.11
3520.00,84.11
3519.00,84.10
3518.00,84.10
3517.00,84.11
3516.00,84.10
3515.00,84.10
3514.00,84.09
3513.00,84.08
3512.00,84.08
3511.00,84.07
3510.00,84.07
3509.00,84.09
3508.00,84.10
3507.00,84.10
3506.00,84.07
3505.00,84.05
3504.00,84.05
3503.00,84.07
3502.00,84.09
3501.00,84.11
3500.00,84.10
3499.00,84.08
3498.00,84.06
3497.00,84.06
3496.00,84.06
3495.00,84.07
3494.00,84.07
3493.00,84.08
3492.00,84.08
3491.00,84.07
3490.00,84.06
3489.00,84.06
3488.00,84.06
3487.00,84.06
3486.00,84.06
3485.00,84.06
3484.00,84.04
3483.00,84.03
3482.00,84.04
3481.00,84.06
3480.00,84.07
3479.00,84.07
3478.00,84.06
3477.00,84.04
3476.00,84.04
3475.00,84.03
3474.00,84.04
3473.00,84.05
3472.00,84.05
3471.00,84.05
3470.00,84.05
3469.00,84.05
3468.00,84.05
3467.00,84.05
3466.00,84.05
3465.00,84.05
3464.00,84.04
3463.00,84.03
3462.00,84.03
3461.00,84.04
3460.00,84.05
3459.00,84.04
3458.00,84.03
3457.00,84.03
3456.00,84.03
3455.00,84.03
3454.00,84.03
3453.00,84.04
3452.00,84.04
3451.00,84.03
3450.00,84.01
3449.00,83.99
3448.00,83.98
3447.00,83.99
3446.00,84.01
3445.00,84.02
3444.00,84.02
3443.00,84.01
3442.00,84.01
3441.00,84.02
3440.00,84.03
3439.00,84.02
3438.00,84.02
3437.00,84.02
3436.00,84.02
3435.00,84.02
3434.00,84.01
3433.00,84.01
3432.00,84.01
3431.00,84.01
3430.00,84.01
3429.00,84.02
3428.00,84.02
3427.00,84.02
3426.00,84.02
3425.00,84.02
3424.00,84.01
3423.00,84.00
3422.00,83.99
3421.00,83.99
3420.00,84.00
3419.00,84.01
3418.00,84.01
3417.00,84.01
3416.00,84.00
3415.00,84.00
3414.00,84.00
3413.00,84.01
3412.00,84.01
3411.00,84.00
3410.00,84.00
3409.00,84.00
3408.00,84.00
3407.00,84.00
3406.00,84.00
3405.00,84.00
3404.00,84.00
3403.00,84.00
3402.00,84.00
3401.00,84.01
3400.00,84.01
3399.00,84.00
3398.00,84.00
3397.00,84.01
3396.00,84.01
3395.00,84.00
3394.00,83.99
3393.00,83.99
3392.00,84.00
3391.00,84.01
3390.00,84.01
3389.00,84.01
3388.00,84.00
3387.00,83.99
3386.00,83.99
3385.00,84.00
3384.00,84.00
3383.00,84.00
3382.00,84.00
3381.00,84.01
3380.00,84.00
3379.00,84.00
3378.00,84.00
3377.00,84.00
3376.00,84.00
3375.00,84.00
3374.00,84.00
3373.00,84.01
3372.00,84.01
3371.00,84.01
3370.00,84.01
3369.00,84.01
3368.00,84.01
3367.00,84.00
3366.00,84.00
3365.00,84.00
3364.00,84.00
3363.00,84.00
3362.00,84.00
3361.00,84.00
3360.00,84.00
3359.00,84.00
3358.00,84.00
3357.00,84.00
3356.00,84.00
3355.00,84.00
3354.00,84.00
3353.00,84.01
3352.00,84.02
3351.00,84.02
3350.00,84.02
3349.00,84.01
3348.00,84.01
3347.00,84.01
3346.00,84.01
3345.00,84.01
3344.00,84.00
3343.00,84.00
3342.00,84.00
3341.00,84.00
3340.00,84.00
3339.00,84.00
3338.00,83.99
3337.00,84.00
3336.00,84.00
3335.00,84.00
3334.00,84.01
3333.00,84.01
3332.00,84.01
3331.00,84.01
3330.00,84.01
3329.00,84.01
3328.00,84.01
3327.00,84.02
3326.00,84.02
3325.00,84.02
3324.00,84.02
3323.00,84.02
3322.00,84.02
3321.00,84.02
3320.00,84.02
3319.00,84.02
3318.00,84.02
3317.00,84.02
3316.00,84.02
3315.00,84.01
3314.00,84.01
3313.00,84.01
3312.00,84.02
3311.00,84.01
3310.00,84.02
3309.00,84.02
3308.00,84.03
3307.00,84.03
3306.00,84.03
3305.00,84.03
3304.00,84.03
3303.00,84.03
3302.00,84.03
3301.00,84.03
3300.00,84.03
3299.00,84.03
3298.00,84.03
3297.00,84.03
3296.00,84.04
3295.00,84.04
3294.00,84.04
3293.00,84.03
3292.00,84.03
3291.00,84.04
3290.00,84.04
3289.00,84.04
3288.00,84.04
3287.00,84.04
3286.00,84.04
3285.00,84.04
3284.00,84.04
3283.00,84.04
3282.00,84.04
3281.00,84.05
3280.00,84.04
3279.00,84.04
3278.00,84.04
3277.00,84.04
3276.00,84.03
3275.00,84.03
3274.00,84.03
3273.00,84.04
3272.00,84.05
3271.00,84.06
3270.00,84.06
3269.00,84.06
3268.00,84.06
3267.00,84.06
3266.00,84.06
3265.00,84.06
3264.00,84.07
3263.00,84.07
3262.00,84.07
3261.00,84.07
3260.00,84.06
3259.00,84.06
3258.00,84.06
3257.00,84.06
3256.00,84.06
3255.00,84.06
3254.00,84.06
3253.00,84.07
3252.00,84.08
3251.00,84.09
3250.00,84.09
3249.00,84.09
3248.00,84.08
3247.00,84.08
3246.00,84.07
3245.00,84.08
3244.00,84.09
3243.00,84.09
3242.00,84.10
3241.00,84.10
3240.00,84.10
3239.00,84.10
3238.00,84.10
3237.00,84.10
3236.00,84.11
3235.00,84.11
3234.00,84.11
3233.00,84.11
3232.00,84.11
3231.00,84.11
3230.00,84.11
3229.00,84.11
3228.00,84.11
3227.00,84.11
3226.00,84.12
3225.00,84.13
3224.00,84.12
3223.00,84.13
3222.00,84.14
3221.00,84.14
3220.00,84.14
3219.00,84.14
3218.00,84.14
3217.00,84.14
3216.00,84.15
3215.00,84.15
3214.00,84.15
3213.00,84.15
3212.00,84.14
3211.00,84.13
3210.00,84.13
3209.00,84.14
3208.00,84.15
3207.00,84.15
3206.00,84.15
3205.00,84.15
3204.00,84.15
3203.00,84.15
3202.00,84.15
3201.00,84.15
3200.00,84.15
3199.00,84.14
3198.00,84.14
3197.00,84.14
3196.00,84.15
3195.00,84.15
3194.00,84.16
3193.00,84.16
3192.00,84.16
3191.00,84.16
3190.00,84.16
3189.00,84.16
3188.00,84.16
3187.00,84.16
3186.00,84.16
3185.00,84.17
3184.00,84.17
3183.00,84.18
3182.00,84.18
3181.00,84.18
3180.00,84.17
3179.00,84.17
3178.00,84.17
3177.00,84.17
3176.00,84.18
3175.00,84.19
3174.00,84.19
3173.00,84.19
3172.00,84.19
3171.00,84.20
3170.00,84.20
3169.00,84.20
3168.00,84.20
3167.00,84.20
3166.00,84.20
3165.00,84.20
3164.00,84.20
3163.00,84.20
3162.00,84.20
3161.00,84.20
3160.00,84.20
3159.00,84.20
3158.00,84.21
3157.00,84.21
3156.00,84.22
3155.00,84.22
3154.00,84.22
3153.00,84.22
3152.00,84.23
3151.00,84.22
3150.00,84.22
3149.00,84.22
3148.00,84.23
3147.00,84.23
3146.00,84.22
3145.00,84.22
3144.00,84.22
3143.00,84.22
3142.00,84.23
3141.00,84.23
3140.00,84.23
3139.00,84.23
3138.00,84.23
3137.00,84.24
3136.00,84.23
3135.00,84.23
3134.00,84.22
3133.00,84.22
3132.00,84.23
3131.00,84.24
3130.00,84.24
3129.00,84.24
3128.00,84.24
3127.00,84.24
3126.00,84.24
3125.00,84.24
3124.00,84.24
3123.00,84.24
3122.00,84.24
3121.00,84.25
3120.00,84.25
3119.00,84.25
3118.00,84.25
3117.00,84.25
3116.00,84.26
3115.00,84.26
3114.00,84.26
3113.00,84.27
3112.00,84.27
3111.00,84.27
3110.00,84.27
3109.00,84.27
3108.00,84.28
3107.00,84.28
3106.00,84.28
3105.00,84.28
3104.00,84.27
3103.00,84.26
3102.00,84.26
3101.00,84.27
3100.00,84.27
3099.00,84.28
3098.00,84.27
3097.00,84.27
3096.00,84.27
3095.00,84.27
3094.00,84.28
3093.00,84.28
3092.00,84.28
3091.00,84.28
3090.00,84.29
3089.00,84.29
3088.00,84.29
3087.00,84.30
3086.00,84.30
3085.00,84.30
3084.00,84.30
3083.00,84.29
3082.00,84.29
3081.00,84.29
3080.00,84.29
3079.00,84.29
3078.00,84.29
3077.00,84.29
3076.00,84.29
3075.00,84.29
3074.00,84.29
3073.00,84.30
3072.00,84.30
3071.00,84.31
3070.00,84.31
3069.00,84.30
3068.00,84.30
3067.00,84.30
3066.00,84.29
3065.00,84.29
3064.00,84.30
3063.00,84.30
3062.00,84.30
3061.00,84.31
3060.00,84.31
3059.00,84.31
3058.00,84.31
3057.00,84.31
3056.00,84.31
3055.00,84.32
3054.00,84.32
3053.00,84.32
3052.00,84.32
3051.00,84.31
3050.00,84.31
3049.00,84.31
3048.00,84.32
3047.00,84.32
3046.00,84.32
3045.00,84.32
3044.00,84.32
3043.00,84.32
3042.00,84.32
3041.00,84.32
3040.00,84.32
3039.00,84.33
3038.00,84.33
3037.00,84.32
3036.00,84.32
3035.00,84.32
3034.00,84.31
3033.00,84.31
3032.00,84.31
3031.00,84.31
3030.00,84.32
3029.00,84.33
3028.00,84.33
3027.00,84.33
3026.00,84.33
3025.00,84.33
3024.00,84.33
3023.00,84.34
3022.00,84.34
3021.00,84.34
3020.00,84.35
3019.00,84.36
3018.00,84.36
3017.00,84.36
3016.00,84.35
3015.00,84.34
3014.00,84.34
3013.00,84.33
3012.00,84.33
3011.00,84.33
3010.00,84.33
3009.00,84.33
3008.00,84.33
3007.00,84.33
3006.00,84.33
3005.00,84.32
3004.00,84.32
3003.00,84.32
3002.00,84.32
3001.00,84.32
3000.00,84.32
2999.00,84.32
2998.00,84.32
2997.00,84.32
2996.00,84.32
2995.00,84.32
2994.00,84.32
2993.00,84.32
2992.00,84.33
2991.00,84.33
2990.00,84.32
2989.00,84.32
2988.00,84.31
2987.00,84.31
2986.00,84.31
2985.00,84.31
2984.00,84.31
2983.00,84.30
2982.00,84.30
2981.00,84.30
2980.00,84.29
2979.00,84.28
2978.00,84.27
2977.00,84.26
2976.00,84.24
2975.00,84.23
2974.00,84.21
2973.00,84.20
2972.00,84.18
2971.00,84.16
2970.00,84.14
2969.00,84.12
2968.00,84.09
2967.00,84.06
2966.00,84.04
2965.00,84.02
2964.00,84.00
2963.00,83.99
2962.00,83.97
2961.00,83.97
2960.00,83.96
2959.00,83.96
2958.00,83.96
2957.00,83.96
2956.00,83.97
2955.00,83.98
2954.00,84.00
2953.00,84.01
2952.00,84.03
2951.00,84.04
2950.00,84.05
2949.00,84.05
2948.00,84.05
2947.00,84.04
2946.00,84.04
2945.00,84.02
2944.00,84.01
2943.00,83.99
2942.00,83.97
2941.00,83.95
2940.00,83.92
2939.00,83.89
2938.00,83.87
2937.00,83.84
2936.00,83.80
2935.00,83.76
2934.00,83.71
2933.00,83.66
2932.00,83.62
2931.00,83.56
2930.00,83.51
2929.00,83.45
2928.00,83.38
2927.00,83.30
2926.00,83.23
2925.00,83.15
2924.00,83.06
2923.00,82.97
2922.00,82.88
2921.00,82.80
2920.00,82.73
2919.00,82.69
2918.00,82.69
2917.00,82.73
2916.00,82.83
2915.00,82.96
2914.00,83.12
2913.00,83.27
2912.00,83.41
2911.00,83.52
2910.00,83.60
2909.00,83.66
2908.00,83.71
2907.00,83.75
2906.00,83.79
2905.00,83.82
2904.00,83.85
2903.00,83.87
2902.00,83.89
2901.00,83.91
2900.00,83.93
2899.00,83.94
2898.00,83.96
2897.00,83.98
2896.00,83.99
2895.00,84.01
2894.00,84.02
2893.00,84.03
2892.00,84.05
2891.00,84.06
2890.00,84.08
2889.00,84.10
2888.00,84.11
2887.00,84.12
2886.00,84.13
2885.00,84.13
2884.00,84.14
2883.00,84.15
2882.00,84.15
2881.00,84.16
2880.00,84.17
2879.00,84.17
2878.00,84.17
2877.00,84.17
2876.00,84.17
2875.00,84.17
2874.00,84.17
2873.00,84.16
2872.00,84.16
2871.00,84.15
2870.00,84.15
2869.00,84.14
2868.00,84.14
2867.00,84.13
2866.00,84.11
2865.00,84.10
2864.00,84.08
2863.00,84.06
2862.00,84.03
2861.00,84.00
2860.00,83.96
2859.00,83.91
2858.00,83.87
2857.00,83.81
2856.00,83.75
2855.00,83.67
2854.00,83.59
2853.00,83.49
2852.00,83.40
2851.00,83.33
2850.00,83.32
2849.00,83.37
2848.00,83.49
2847.00,83.63
2846.00,83.78
2845.00,83.91
2844.00,84.01
2843.00,84.08
2842.00,84.14
2841.00,84.18
2840.00,84.22
2839.00,84.25
2838.00,84.28
2837.00,84.30
2836.00,84.31
2835.00,84.32
2834.00,84.33
2833.00,84.33
2832.00,84.34
2831.00,84.35
2830.00,84.36
2829.00,84.37
2828.00,84.37
2827.00,84.37
2826.00,84.38
2825.00,84.38
2824.00,84.39
2823.00,84.39
2822.00,84.39
2821.00,84.39
2820.00,84.39
2819.00,84.39
2818.00,84.40
2817.00,84.41
2816.00,84.42
2815.00,84.42
2814.00,84.43
2813.00,84.43
2812.00,84.43
2811.00,84.43
2810.00,84.43
2809.00,84.43
2808.00,84.43
2807.00,84.43
2806.00,84.43
2805.00,84.44
2804.00,84.44
2803.00,84.44
2802.00,84.44
2801.00,84.44
2800.00,84.44
2799.00,84.44
2798.00,84.45
2797.00,84.45
2796.00,84.45
2795.00,84.45
2794.00,84.45
2793.00,84.45
2792.00,84.45
2791.00,84.46
2790.00,84.46
2789.00,84.46
2788.00,84.46
2787.00,84.46
2786.00,84.46
2785.00,84.46
2784.00,84.46
2783.00,84.46
2782.00,84.46
2781.00,84.46
2780.00,84.47
2779.00,84.47
2778.00,84.47
2777.00,84.48
2776.00,84.48
2775.00,84.48
2774.00,84.48
2773.00,84.48
2772.00,84.48
2771.00,84.48
2770.00,84.48
2769.00,84.48
2768.00,84.48
2767.00,84.48
2766.00,84.48
2765.00,84.48
2764.00,84.48
2763.00,84.48
2762.00,84.48
2761.00,84.49
2760.00,84.49
2759.00,84.49
2758.00,84.49
2757.00,84.49
2756.00,84.49
2755.00,84.49
2754.00,84.49
2753.00,84.49
2752.00,84.49
2751.00,84.49
2750.00,84.49
2749.00,84.49
2748.00,84.50
2747.00,84.50
2746.00,84.50
2745.00,84.50
2744.00,84.50
2743.00,84.50
2742.00,84.50
2741.00,84.50
2740.00,84.50
2739.00,84.50
2738.00,84.50
2737.00,84.50
2736.00,84.50
2735.00,84.50
2734.00,84.50
2733.00,84.50
2732.00,84.50
2731.00,84.50
2730.00,84.51
2729.00,84.51
2728.00,84.51
2727.00,84.51
2726.00,84.51
2725.00,84.51
2724.00,84.51
2723.00,84.51
2722.00,84.52
2721.00,84.52
2720.00,84.52
2719.00,84.52
2718.00,84.52
2717.00,84.52
2716.00,84.52
2715.00,84.52
2714.00,84.52
2713.00,84.52
2712.00,84.52
2711.00,84.52
2710.00,84.52
2709.00,84.52
2708.00,84.52
2707.00,84.52
2706.00,84.52
2705.00,84.52
2704.00,84.52
2703.00,84.53
2702.00,84.53
2701.00,84.53
2700.00,84.53
2699.00,84.53
2698.00,84.53
2697.00,84.53
2696.00,84.53
2695.00,84.53
2694.00,84.53
2693.00,84.53
2692.00,84.53
2691.00,84.53
2690.00,84.53
2689.00,84.53
2688.00,84.53
2687.00,84.54
2686.00,84.54
2685.00,84.54
2684.00,84.54
2683.00,84.54
2682.00,84.54
2681.00,84.54
2680.00,84.55
2679.00,84.55
2678.00,84.55
2677.00,84.55
2676.00,84.54
2675.00,84.54
2674.00,84.54
2673.00,84.54
2672.00,84.54
2671.00,84.54
2670.00,84.54
2669.00,84.55
2668.00,84.55
2667.00,84.55
2666.00,84.55
2665.00,84.55
2664.00,84.55
2663.00,84.55
2662.00,84.55
2661.00,84.55
2660.00,84.55
2659.00,84.55
2658.00,84.55
2657.00,84.55
2656.00,84.55
2655.00,84.55
2654.00,84.56
2653.00,84.56
2652.00,84.56
2651.00,84.56
2650.00,84.56
2649.00,84.56
2648.00,84.56
2647.00,84.56
2646.00,84.57
2645.00,84.57
2644.00,84.57
2643.00,84.57
2642.00,84.57
2641.00,84.57
2640.00,84.57
2639.00,84.57
2638.00,84.57
2637.00,84.57
2636.00,84.57
2635.00,84.57
2634.00,84.57
2633.00,84.57
2632.00,84.57
2631.00,84.57
2630.00,84.57
2629.00,84.57
2628.00,84.57
2627.00,84.57
2626.00,84.57
2625.00,84.58
2624.00,84.58
2623.00,84.58
2622.00,84.58
2621.00,84.58
2620.00,84.58
2619.00,84.58
2618.00,84.58
2617.00,84.58
2616.00,84.58
2615.00,84.58
2614.00,84.59
2613.00,84.59
2612.00,84.58
2611.00,84.58
2610.00,84.58
2609.00,84.58
2608.00,84.59
2607.00,84.59
2606.00,84.59
2605.00,84.60
2604.00,84.60
2603.00,84.60
2602.00,84.60
2601.00,84.60
2600.00,84.60
2599.00,84.59
2598.00,84.59
2597.00,84.59
2596.00,84.59
2595.00,84.59
2594.00,84.60
2593.00,84.60
2592.00,84.60
2591.00,84.60
2590.00,84.60
2589.00,84.60
2588.00,84.60
2587.00,84.60
2586.00,84.60
2585.00,84.60
2584.00,84.60
2583.00,84.60
2582.00,84.60
2581.00,84.61
2580.00,84.61
2579.00,84.60
2578.00,84.60
2577.00,84.61
2576.00,84.61
2575.00,84.61
2574.00,84.61
2573.00,84.61
2572.00,84.62
2571.00,84.62
2570.00,84.62
2569.00,84.62
2568.00,84.61
2567.00,84.61
2566.00,84.61
2565.00,84.60
2564.00,84.61
2563.00,84.61
2562.00,84.61
2561.00,84.62
2560.00,84.62
2559.00,84.62
2558.00,84.62
2557.00,84.62
2556.00,84.62
2555.00,84.62
2554.00,84.63
2553.00,84.63
2552.00,84.63
2551.00,84.63
2550.00,84.63
2549.00,84.62
2548.00,84.63
2547.00,84.63
2546.00,84.63
2545.00,84.63
2544.00,84.63
2543.00,84.63
2542.00,84.63
2541.00,84.63
2540.00,84.63
2539.00,84.63
2538.00,84.63
2537.00,84.63
2536.00,84.63
2535.00,84.63
2534.00,84.63
2533.00,84.63
2532.00,84.63
2531.00,84.63
2530.00,84.63
2529.00,84.64
2528.00,84.64
2527.00,84.64
2526.00,84.64
2525.00,84.64
2524.00,84.64
2523.00,84.64
2522.00,84.64
2521.00,84.64
2520.00,84.64
2519.00,84.64
2518.00,84.64
2517.00,84.64
2516.00,84.64
2515.00,84.64
2514.00,84.64
2513.00,84.65
2512.00,84.65
2511.00,84.65
2510.00,84.65
2509.00,84.65
2508.00,84.65
2507.00,84.64
2506.00,84.64
2505.00,84.64
2504.00,84.64
2503.00,84.64
2502.00,84.65
2501.00,84.65
2500.00,84.65
2499.00,84.65
2498.00,84.65
2497.00,84.65
2496.00,84.65
2495.00,84.66
2494.00,84.66
2493.00,84.66
2492.00,84.66
2491.00,84.66
2490.00,84.66
2489.00,84.66
2488.00,84.66
2487.00,84.66
2486.00,84.67
2485.00,84.67
2484.00,84.67
2483.00,84.67
2482.00,84.67
2481.00,84.67
2480.00,84.67
2479.00,84.68
2478.00,84.68
2477.00,84.68
2476.00,84.67
2475.00,84.67
2474.00,84.66
2473.00,84.66
2472.00,84.67
2471.00,84.67
2470.00,84.68
2469.00,84.68
2468.00,84.68
2467.00,84.68
2466.00,84.68
2465.00,84.68
2464.00,84.68
2463.00,84.68
2462.00,84.68
2461.00,84.68
2460.00,84.68
2459.00,84.68
2458.00,84.68
2457.00,84.68
2456.00,84.68
2455.00,84.68
2454.00,84.68
2453.00,84.68
2452.00,84.69
2451.00,84.69
2450.00,84.69
2449.00,84.68
2448.00,84.68
2447.00,84.68
2446.00,84.68
2445.00,84.69
2444.00,84.69
2443.00,84.69
2442.00,84.70
2441.00,84.70
2440.00,84.70
2439.00,84.70
2438.00,84.70
2437.00,84.70
2436.00,84.70
2435.00,84.70
2434.00,84.70
2433.00,84.70
2432.00,84.70
2431.00,84.70
2430.00,84.71
2429.00,84.71
2428.00,84.70
2427.00,84.70
2426.00,84.71
2425.00,84.71
2424.00,84.71
2423.00,84.71
2422.00,84.71
2421.00,84.71
2420.00,84.71
2419.00,84.71
2418.00,84.71
2417.00,84.71
2416.00,84.71
2415.00,84.71
2414.00,84.71
2413.00,84.72
2412.00,84.71
2411.00,84.71
2410.00,84.72
2409.00,84.72
2408.00,84.72
2407.00,84.72
2406.00,84.72
2405.00,84.72
2404.00,84.72
2403.00,84.72
2402.00,84.72
2401.00,84.72
2400.00,84.72
2399.00,84.72
2398.00,84.72
2397.00,84.72
2396.00,84.72
2395.00,84.72
2394.00,84.72
2393.00,84.73
2392.00,84.72
2391.00,84.72
2390.00,84.72
2389.00,84.73
2388.00,84.73
2387.00,84.73
2386.00,84.73
2385.00,84.73
2384.00,84.73
2383.00,84.73
2382.00,84.73
2381.00,84.73
2380.00,84.73
2379.00,84.72
2378.00,84.71
2377.00,84.70
2376.00,84.69
2375.00,84.69
2374.00,84.70
2373.00,84.71
2372.00,84.72
2371.00,84.72
2370.00,84.73
2369.00,84.73
2368.00,84.73
2367.00,84.72
2366.00,84.72
2365.00,84.72
2364.00,84.72
2363.00,84.71
2362.00,84.73
2361.00,84.74
2360.00,84.75
2359.00,84.76
2358.00,84.75
2357.00,84.73
2356.00,84.72
2355.00,84.71
2354.00,84.70
2353.00,84.69
2352.00,84.70
2351.00,84.72
2350.00,84.73
2349.00,84.73
2348.00,84.72
2347.00,84.71
2346.00,84.72
2345.00,84.72
2344.00,84.73
2343.00,84.74
2342.00,84.75
2341.00,84.75
2340.00,84.74
2339.00,84.74
2338.00,84.73
2337.00,84.72
2336.00,84.71
2335.00,84.70
2334.00,84.70
2333.00,84.70
2332.00,84.71
2331.00,84.72
2330.00,84.72
2329.00,84.72
2328.00,84.72
2327.00,84.74
2326.00,84.75
2325.00,84.76
2324.00,84.77
2323.00,84.77
2322.00,84.77
2321.00,84.76
2320.00,84.76
2319.00,84.76
2318.00,84.76
2317.00,84.76
2316.00,84.77
2315.00,84.77
2314.00,84.78
2313.00,84.78
2312.00,84.79
2311.00,84.79
2310.00,84.79
2309.00,84.79
2308.00,84.79
2307.00,84.79
2306.00,84.79
2305.00,84.80
2304.00,84.80
2303.00,84.80
2302.00,84.79
2301.00,84.79
2300.00,84.79
2299.00,84.80
2298.00,84.80
2297.00,84.80
2296.00,84.80
2295.00,84.81
2294.00,84.81
2293.00,84.81
2292.00,84.81
2291.00,84.81
2290.00,84.81
2289.00,84.81
2288.00,84.81
2287.00,84.81
2286.00,84.81
2285.00,84.81
2284.00,84.82
2283.00,84.82
2282.00,84.82
2281.00,84.82
2280.00,84.82
2279.00,84.82
2278.00,84.82
2277.00,84.82
2276.00,84.82
2275.00,84.83
2274.00,84.83
2273.00,84.83
2272.00,84.83
2271.00,84.83
2270.00,84.83
2269.00,84.83
2268.00,84.83
2267.00,84.83
2266.00,84.84
2265.00,84.84
2264.00,84.83
2263.00,84.83
2262.00,84.83
2261.00,84.84
2260.00,84.84
2259.00,84.84
2258.00,84.84
2257.00,84.84
2256.00,84.84
2255.00,84.84
2254.00,84.85
2253.00,84.85
2252.00,84.85
2251.00,84.85
2250.00,84.85
2249.00,84.85
2248.00,84.85
2247.00,84.85
2246.00,84.85
2245.00,84.85
2244.00,84.85
2243.00,84.86
2242.00,84.86
2241.00,84.86
2240.00,84.86
2239.00,84.86
2238.00,84.87
2237.00,84.86
2236.00,84.86
2235.00,84.86
2234.00,84.86
2233.00,84.87
2232.00,84.87
2231.00,84.87
2230.00,84.87
2229.00,84.87
2228.00,84.87
2227.00,84.86
2226.00,84.86
2225.00,84.86
2224.00,84.86
2223.00,84.86
2222.00,84.87
2221.00,84.87
2220.00,84.87
2219.00,84.88
2218.00,84.88
2217.00,84.88
2216.00,84.88
2215.00,84.88
2214.00,84.88
2213.00,84.88
2212.00,84.88
2211.00,84.88
2210.00,84.88
2209.00,84.89
2208.00,84.89
2207.00,84.89
2206.00,84.89
2205.00,84.89
2204.00,84.89
2203.00,84.89
2202.00,84.89
2201.00,84.89
2200.00,84.89
2199.00,84.89
2198.00,84.90
2197.00,84.90
2196.00,84.90
2195.00,84.90
2194.00,84.90
2193.00,84.90
2192.00,84.89
2191.00,84.89
2190.00,84.89
2189.00,84.89
2188.00,84.90
2187.00,84.90
2186.00,84.90
2185.00,84.90
2184.00,84.90
2183.00,84.91
2182.00,84.91
2181.00,84.91
2180.00,84.91
2179.00,84.91
2178.00,84.91
2177.00,84.91
2176.00,84.91
2175.00,84.91
2174.00,84.91
2173.00,84.91
2172.00,84.91
2171.00,84.91
2170.00,84.91
2169.00,84.92
2168.00,84.92
2167.00,84.92
2166.00,84.92
2165.00,84.92
2164.00,84.92
2163.00,84.92
2162.00,84.92
2161.00,84.93
2160.00,84.93
2159.00,84.93
2158.00,84.93
2157.00,84.93
2156.00,84.93
2155.00,84.93
2154.00,84.93
2153.00,84.93
2152.00,84.93
2151.00,84.93
2150.00,84.93
2149.00,84.94
2148.00,84.94
2147.00,84.94
2146.00,84.94
2145.00,84.94
2144.00,84.94
2143.00,84.93
2142.00,84.94
2141.00,84.94
2140.00,84.94
2139.00,84.94
2138.00,84.95
2137.00,84.95
2136.00,84.95
2135.00,84.95
2134.00,84.95
2133.00,84.95
2132.00,84.95
2131.00,84.95
2130.00,84.95
2129.00,84.96
2128.00,84.96
2127.00,84.96
2126.00,84.96
2125.00,84.96
2124.00,84.96
2123.00,84.97
2122.00,84.97
2121.00,84.97
2120.00,84.97
2119.00,84.97
2118.00,84.97
2117.00,84.97
2116.00,84.96
2115.00,84.97
2114.00,84.97
2113.00,84.98
2112.00,84.98
2111.00,84.98
2110.00,84.98
2109.00,84.98
2108.00,84.98
2107.00,84.98
2106.00,84.98
2105.00,84.98
2104.00,84.98
2103.00,84.98
2102.00,84.98
2101.00,84.98
2100.00,84.98
2099.00,84.98
2098.00,84.98
2097.00,84.98
2096.00,84.98
2095.00,84.98
2094.00,84.98
2093.00,84.98
2092.00,84.98
2091.00,84.98
2090.00,84.99
2089.00,84.99
2088.00,84.99
2087.00,85.00
2086.00,85.00
2085.00,85.00
2084.00,85.00
2083.00,85.00
2082.00,85.01
2081.00,85.01
2080.00,85.00
2079.00,85.00
2078.00,85.00
2077.00,85.00
2076.00,85.00
2075.00,85.01
2074.00,85.01
2073.00,85.01
2072.00,85.01
2071.00,85.02
2070.00,85.02
2069.00,85.02
2068.00,85.02
2067.00,85.02
2066.00,85.02
2065.00,85.02
2064.00,85.02
2063.00,85.03
2062.00,85.03
2061.00,85.03
2060.00,85.03
2059.00,85.04
2058.00,85.04
2057.00,85.03
2056.00,85.03
2055.00,85.03
2054.00,85.04
2053.00,85.04
2052.00,85.04
2051.00,85.04
2050.00,85.04
2049.00,85.04
2048.00,85.05
2047.00,85.05
2046.00,85.05
2045.00,85.05
2044.00,85.04
2043.00,85.04
2042.00,85.04
2041.00,85.04
2040.00,85.05
2039.00,85.06
2038.00,85.06
2037.00,85.06
2036.00,85.06
2035.00,85.06
2034.00,85.06
2033.00,85.06
2032.00,85.06
2031.00,85.06
2030.00,85.06
2029.00,85.06
2028.00,85.06
2027.00,85.06
2026.00,85.07
2025.00,85.07
2024.00,85.07
2023.00,85.08
2022.00,85.08
2021.00,85.08
2020.00,85.07
2019.00,85.07
2018.00,85.07
2017.00,85.07
2016.00,85.08
2015.00,85.09
2014.00,85.09
2013.00,85.09
2012.00,85.09
2011.00,85.09
2010.00,85.09
2009.00,85.09
2008.00,85.09
2007.00,85.09
2006.00,85.10
2005.00,85.10
2004.00,85.10
2003.00,85.10
2002.00,85.10
2001.00,85.10
2000.00,85.10
1999.00,85.10
1998.00,85.11
1997.00,85.11
1996.00,85.12
1995.00,85.11
1994.00,85.10
1993.00,85.09
1992.00,85.10
1991.00,85.11
1990.00,85.12
1989.00,85.11
1988.00,85.11
1987.00,85.12
1986.00,85.12
1985.00,85.12
1984.00,85.12
1983.00,85.13
1982.00,85.13
1981.00,85.13
1980.00,85.13
1979.00,85.13
1978.00,85.13
1977.00,85.13
1976.00,85.13
1975.00,85.14
1974.00,85.14
1973.00,85.14
1972.00,85.14
1971.00,85.14
1970.00,85.14
1969.00,85.12
1968.00,85.10
1967.00,85.11
1966.00,85.13
1965.00,85.15
1964.00,85.15
1963.00,85.15
1962.00,85.15
1961.00,85.14
1960.00,85.15
1959.00,85.15
1958.00,85.15
1957.00,85.15
1956.00,85.15
1955.00,85.15
1954.00,85.16
1953.00,85.16
1952.00,85.16
1951.00,85.16
1950.00,85.17
1949.00,85.16
1948.00,85.15
1947.00,85.14
1946.00,85.13
1945.00,85.11
1944.00,85.09
1943.00,85.10
1942.00,85.13
1941.00,85.17
1940.00,85.20
1939.00,85.20
1938.00,85.20
1937.00,85.19
1936.00,85.19
1935.00,85.18
1934.00,85.18
1933.00,85.18
1932.00,85.19
1931.00,85.19
1930.00,85.20
1929.00,85.20
1928.00,85.21
1927.00,85.21
1926.00,85.20
1925.00,85.17
1924.00,85.14
1923.00,85.15
1922.00,85.18
1921.00,85.20
1920.00,85.18
1919.00,85.16
1918.00,85.17
1917.00,85.19
1916.00,85.22
1915.00,85.24
1914.00,85.23
1913.00,85.21
1912.00,85.18
1911.00,85.16
1910.00,85.15
1909.00,85.15
1908.00,85.17
1907.00,85.20
1906.00,85.22
1905.00,85.22
1904.00,85.22
1903.00,85.23
1902.00,85.23
1901.00,85.23
1900.00,85.23
1899.00,85.23
1898.00,85.22
1897.00,85.20
1896.00,85.18
1895.00,85.19
1894.00,85.23
1893.00,85.24
1892.00,85.22
1891.00,85.20
1890.00,85.19
1889.00,85.21
1888.00,85.23
1887.00,85.25
1886.00,85.25
1885.00,85.24
1884.00,85.23
1883.00,85.25
1882.00,85.26
1881.00,85.26
1880.00,85.25
1879.00,85.26
1878.00,85.27
1877.00,85.27
1876.00,85.26
1875.00,85.28
1874.00,85.30
1873.00,85.30
1872.00,85.28
1871.00,85.25
1870.00,85.20
1869.00,85.14
1868.00,85.13
1867.00,85.17
1866.00,85.23
1865.00,85.27
1864.00,85.28
1863.00,85.29
1862.00,85.30
1861.00,85.29
1860.00,85.27
1859.00,85.27
1858.00,85.28
1857.00,85.28
1856.00,85.27
1855.00,85.28
1854.00,85.29
1853.00,85.29
1852.00,85.29
1851.00,85.30
1850.00,85.30
1849.00,85.29
1848.00,85.27
1847.00,85.22
1846.00,85.16
1845.00,85.13
1844.00,85.15
1843.00,85.23
1842.00,85.32
1841.00,85.35
1840.00,85.32
1839.00,85.29
1838.00,85.28
1837.00,85.28
1836.00,85.30
1835.00,85.33
1834.00,85.35
1833.00,85.34
1832.00,85.28
1831.00,85.21
1830.00,85.18
1829.00,85.22
1828.00,85.29
1827.00,85.32
1826.00,85.32
1825.00,85.31
1824.00,85.32
1823.00,85.34
1822.00,85.35
1821.00,85.34
1820.00,85.33
1819.00,85.33
1818.00,85.35
1817.00,85.35
1816.00,85.34
1815.00,85.34
1814.00,85.33
1813.00,85.29
1812.00,85.25
1811.00,85.24
1810.00,85.28
1809.00,85.31
1808.00,85.33
1807.00,85.34
1806.00,85.37
1805.00,85.38
1804.00,85.38
1803.00,85.40
1802.00,85.39
1801.00,85.36
1800.00,85.32
1799.00,85.32
1798.00,85.35
1797.00,85.36
1796.00,85.36
1795.00,85.40
1794.00,85.46
1793.00,85.49
1792.00,85.48
1791.00,85.47
1790.00,85.47
1789.00,85.46
1788.00,85.44
1787.00,85.43
1786.00,85.44
1785.00,85.43
1784.00,85.40
1783.00,85.34
1782.00,85.28
1781.00,85.25
1780.00,85.28
1779.00,85.35
1778.00,85.39
1777.00,85.40
1776.00,85.40
1775.00,85.40
1774.00,85.41
1773.00,85.43
1772.00,85.43
1771.00,85.45
1770.00,85.50
1769.00,85.53
1768.00,85.51
1767.00,85.48
1766.00,85.47
1765.00,85.48
1764.00,85.48
1763.00,85.47
1762.00,85.48
1761.00,85.49
1760.00,85.48
1759.00,85.46
1758.00,85.45
1757.00,85.46
1756.00,85.48
1755.00,85.48
1754.00,85.49
1753.00,85.52
1752.00,85.54
1751.00,85.47
1750.00,85.34
1749.00,85.23
1748.00,85.19
1747.00,85.21
1746.00,85.22
1745.00,85.24
1744.00,85.26
1743.00,85.30
1742.00,85.35
1741.00,85.38
1740.00,85.39
1739.00,85.41
1738.00,85.42
1737.00,85.38
1736.00,85.38
1735.00,85.47
1734.00,85.50
1733.00,85.42
1732.00,85.34
1731.00,85.31
1730.00,85.31
1729.00,85.34
1728.00,85.37
1727.00,85.39
1726.00,85.38
1725.00,85.35
1724.00,85.35
1723.00,85.39
1722.00,85.44
1721.00,85.41
1720.00,85.34
1719.00,85.39
1718.00,85.53
1717.00,85.59
1716.00,85.54
1715.00,85.51
1714.00,85.50
1713.00,85.46
1712.00,85.40
1711.00,85.37
1710.00,85.38
1709.00,85.36
1708.00,85.31
1707.00,85.29
1706.00,85.36
1705.00,85.45
1704.00,85.46
1703.00,85.37
1702.00,85.33
1701.00,85.38
1700.00,85.39
1699.00,85.38
1698.00,85.37
1697.00,85.27
1696.00,85.17
1695.00,85.17
1694.00,85.29
1693.00,85.41
1692.00,85.41
1691.00,85.35
1690.00,85.34
1689.00,85.39
1688.00,85.41
1687.00,85.37
1686.00,85.36
1685.00,85.42
1684.00,85.44
1683.00,85.41
1682.00,85.38
1681.00,85.36
1680.00,85.37
1679.00,85.38
1678.00,85.35
1677.00,85.32
1676.00,85.33
1675.00,85.33
1674.00,85.30
1673.00,85.27
1672.00,85.20
1671.00,85.12
1670.00,85.07
1669.00,85.09
1668.00,85.18
1667.00,85.27
1666.00,85.31
1665.00,85.28
1664.00,85.23
1663.00,85.21
1662.00,85.21
1661.00,85.25
1660.00,85.30
1659.00,85.33
1658.00,85.34
1657.00,85.31
1656.00,85.19
1655.00,85.11
1654.00,85.14
1653.00,85.05
1652.00,84.89
1651.00,84.98
1650.00,85.17
1649.00,85.21
1648.00,85.20
1647.00,85.24
1646.00,85.28
1645.00,85.24
1644.00,85.22
1643.00,85.21
1642.00,85.19
1641.00,85.18
1640.00,85.16
1639.00,85.10
1638.00,85.05
1637.00,85.07
1636.00,85.10
1635.00,85.09
1634.00,85.10
1633.00,85.15
1632.00,85.19
1631.00,85.17
1630.00,85.10
1629.00,85.03
1628.00,85.03
1627.00,85.07
1626.00,85.10
1625.00,85.10
1624.00,85.06
1623.00,85.05
1622.00,85.07
1621.00,85.13
1620.00,85.13
1619.00,85.06
1618.00,84.98
1617.00,84.94
1616.00,84.95
1615.00,85.01
1614.00,85.06
1613.00,85.07
1612.00,85.04
1611.00,85.00
1610.00,84.94
1609.00,84.91
1608.00,84.93
1607.00,84.96
1606.00,84.96
1605.00,84.96
1604.00,84.95
1603.00,84.93
1602.00,84.92
1601.00,84.94
1600.00,84.96
1599.00,84.96
1598.00,84.93
1597.00,84.90
1596.00,84.87
1595.00,84.86
1594.00,84.85
1593.00,84.86
1592.00,84.87
1591.00,84.87
1590.00,84.85
1589.00,84.84
1588.00,84.83
1587.00,84.81
1586.00,84.78
1585.00,84.75
1584.00,84.74
1583.00,84.70
1582.00,84.66
1581.00,84.64
1580.00,84.62
1579.00,84.52
1578.00,84.40
1577.00,84.36
1576.00,84.40
1575.00,84.48
1574.00,84.59
1573.00,84.68
1572.00,84.67
1571.00,84.61
1570.00,84.56
1569.00,84.58
1568.00,84.64
1567.00,84.65
1566.00,84.61
1565.00,84.61
1564.00,84.68
1563.00,84.70
1562.00,84.69
1561.00,84.87
1560.00,85.14
1559.00,85.05
1558.00,84.73
1557.00,84.61
1556.00,84.74
1555.00,84.85
1554.00,84.84
1553.00,84.79
1552.00,84.73
1551.00,84.65
1550.00,84.60
1549.00,84.62
1548.00,84.68
1547.00,84.72
1546.00,84.70
1545.00,84.61
1544.00,84.49
1543.00,84.45
1542.00,84.54
1541.00,84.70
1540.00,84.73
1539.00,84.60
1538.00,84.50
1537.00,84.57
1536.00,84.67
1535.00,84.70
1534.00,84.70
1533.00,84.72
1532.00,84.77
1531.00,84.80
1530.00,84.82
1529.00,84.82
1528.00,84.87
1527.00,84.96
1526.00,85.04
1525.00,85.05
1524.00,84.98
1523.00,84.87
1522.00,84.81
1521.00,84.82
1520.00,84.87
1519.00,84.92
1518.00,84.93
1517.00,84.93
1516.00,84.96
1515.00,85.03
1514.00,85.08
1513.00,85.09
1512.00,85.07
1511.00,85.06
1510.00,85.06
1509.00,85.09
1508.00,85.19
1507.00,85.28
1506.00,85.20
1505.00,84.99
1504.00,84.90
1503.00,84.88
1502.00,84.85
1501.00,84.78
1500.00,84.73
1499.00,84.73
1498.00,84.82
1497.00,84.90
1496.00,84.90
1495.00,84.87
1494.00,84.87
1493.00,84.87
1492.00,84.85
1491.00,84.83
1490.00,84.82
1489.00,84.77
1488.00,84.71
1487.00,84.68
1486.00,84.68
1485.00,84.67
1484.00,84.64
1483.00,84.59
1482.00,84.56
1481.00,84.55
1480.00,84.57
1479.00,84.59
1478.00,84.60
1477.00,84.60
1476.00,84.63
1475.00,84.71
1474.00,84.77
1473.00,84.75
1472.00,84.61
1471.00,84.48
1470.00,84.41
1469.00,84.36
1468.00,84.32
1467.00,84.30
1466.00,84.29
1465.00,84.30
1464.00,84.31
1463.00,84.32
1462.00,84.33
1461.00,84.31
1460.00,84.23
1459.00,84.15
1458.00,84.17
1457.00,84.20
1456.00,84.18
1455.00,84.18
1454.00,84.24
1453.00,84.28
1452.00,84.27
1451.00,84.25
1450.00,84.24
1449.00,84.24
1448.00,84.21
1447.00,84.18
1446.00,84.15
1445.00,84.15
1444.00,84.14
1443.00,84.10
1442.00,84.09
1441.00,84.12
1440.00,84.10
1439.00,84.02
1438.00,83.98
1437.00,83.99
1436.00,83.99
1435.00,83.97
1434.00,83.99
1433.00,84.00
1432.00,83.96
1431.00,83.89
1430.00,83.87
1429.00,83.89
1428.00,83.91
1427.00,83.89
1426.00,83.83
1425.00,83.79
1424.00,83.79
1423.00,83.76
1422.00,83.71
1421.00,83.65
1420.00,83.62
1419.00,83.59
1418.00,83.63
1417.00,83.71
1416.00,83.73
1415.00,83.68
1414.00,83.62
1413.00,83.61
1412.00,83.61
1411.00,83.58
1410.00,83.57
1409.00,83.58
1408.00,83.58
1407.00,83.55
1406.00,83.52
1405.00,83.52
1404.00,83.54
1403.00,83.55
1402.00,83.54
1401.00,83.54
1400.00,83.54
1399.00,83.54
1398.00,83.53
1397.00,83.53
1396.00,83.53
1395.00,83.50
1394.00,83.46
1393.00,83.44
1392.00,83.41
1391.00,83.38
1390.00,83.34
1389.00,83.32
1388.00,83.30
1387.00,83.27
1386.00,83.24
1385.00,83.22
1384.00,83.20
1383.00,83.17
1382.00,83.13
1381.00,83.11
1380.00,83.09
1379.00,83.07
1378.00,83.04
1377.00,83.00
1376.00,82.96
1375.00,82.92
1374.00,82.91
1373.00,82.92
1372.00,82.92
1371.00,82.88
1370.00,82.82
1369.00,82.78
1368.00,82.77
1367.00,82.76
1366.00,82.75
1365.00,82.72
1364.00,82.70
1363.00,82.68
1362.00,82.67
1361.00,82.65
1360.00,82.62
1359.00,82.57
1358.00,82.51
1357.00,82.46
1356.00,82.42
1355.00,82.38
1354.00,82.35
1353.00,82.32
1352.00,82.30
1351.00,82.26
1350.00,82.21
1349.00,82.19
1348.00,82.17
1347.00,82.14
1346.00,82.11
1345.00,82.08
1344.00,82.06
1343.00,82.02
1342.00,81.97
1341.00,81.93
1340.00,81.90
1339.00,81.88
1338.00,81.84
1337.00,81.80
1336.00,81.75
1335.00,81.70
1334.00,81.65
1333.00,81.61
1332.00,81.57
1331.00,81.53
1330.00,81.48
1329.00,81.44
1328.00,81.40
1327.00,81.36
1326.00,81.31
1325.00,81.26
1324.00,81.22
1323.00,81.17
1322.00,81.12
1321.00,81.06
1320.00,81.00
1319.00,80.95
1318.00,80.92
1317.00,80.89
1316.00,80.85
1315.00,80.81
1314.00,80.75
1313.00,80.71
1312.00,80.66
1311.00,80.61
1310.00,80.56
1309.00,80.51
1308.00,80.46
1307.00,80.41
1306.00,80.36
1305.00,80.31
1304.00,80.26
1303.00,80.20
1302.00,80.14
1301.00,80.09
1300.00,80.04
1299.00,79.99
1298.00,79.93
1297.00,79.87
1296.00,79.82
1295.00,79.75
1294.00,79.69
1293.00,79.63
1292.00,79.58
1291.00,79.53
1290.00,79.47
1289.00,79.41
1288.00,79.35
1287.00,79.27
1286.00,79.20
1285.00,79.14
1284.00,79.07
1283.00,79.01
1282.00,78.93
1281.00,78.86
1280.00,78.79
1279.00,78.71
1278.00,78.64
1277.00,78.57
1276.00,78.50
1275.00,78.42
1274.00,78.33
1273.00,78.25
1272.00,78.16
1271.00,78.08
1270.00,77.99
1269.00,77.89
1268.00,77.79
1267.00,77.68
1266.00,77.56
1265.00,77.44
1264.00,77.32
1263.00,77.20
1262.00,77.09
1261.00,77.00
1260.00,76.93
1259.00,76.87
1258.00,76.82
1257.00,76.77
1256.00,76.72
1255.00,76.66
1254.00,76.60
1253.00,76.54
1252.00,76.47
1251.00,76.39
1250.00,76.30
1249.00,76.22
1248.00,76.13
1247.00,76.04
1246.00,75.95
1245.00,75.86
1244.00,75.77
1243.00,75.68
1242.00,75.58
1241.00,75.48
1240.00,75.38
1239.00,75.28
1238.00,75.17
1237.00,75.07
1236.00,74.97
1235.00,74.86
1234.00,74.75
1233.00,74.64
1232.00,74.53
1231.00,74.42
1230.00,74.31
1229.00,74.21
1228.00,74.10
1227.00,73.99
1226.00,73.87
1225.00,73.76
1224.00,73.64
1223.00,73.52
1222.00,73.40
1221.00,73.28
1220.00,73.17
1219.00,73.05
1218.00,72.94
1217.00,72.82
1216.00,72.71
1215.00,72.58
1214.00,72.46
1213.00,72.33
1212.00,72.20
1211.00,72.07
1210.00,71.94
1209.00,71.81
1208.00,71.68
1207.00,71.54
1206.00,71.40
1205.00,71.26
1204.00,71.12
1203.00,70.98
1202.00,70.84
1201.00,70.70
1200.00,70.56
1199.00,70.41
1198.00,70.27
1197.00,70.12
1196.00,69.98
1195.00,69.83
1194.00,69.68
1193.00,69.52
1192.00,69.37
1191.00,69.21
1190.00,69.06
1189.00,68.91
1188.00,68.76
1187.00,68.61
1186.00,68.45
1185.00,68.29
1184.00,68.13
1183.00,67.97
1182.00,67.81
1181.00,67.64
1180.00,67.48
1179.00,67.31
1178.00,67.13
1177.00,66.95
1176.00,66.76
1175.00,66.58
1174.00,66.39
1173.00,66.21
1172.00,66.02
1171.00,65.82
1170.00,65.62
1169.00,65.42
1168.00,65.22
1167.00,65.01
1166.00,64.80
1165.00,64.59
1164.00,64.39
1163.00,64.19
1162.00,63.99
1161.00,63.78
1160.00,63.57
1159.00,63.36
1158.00,63.15
1157.00,62.94
1156.00,62.73
1155.00,62.52
1154.00,62.31
1153.00,62.10
1152.00,61.89
1151.00,61.68
1150.00,61.46
1149.00,61.24
1148.00,61.02
1147.00,60.79
1146.00,60.57
1145.00,60.34
1144.00,60.12
1143.00,59.89
1142.00,59.66
1141.00,59.43
1140.00,59.20
1139.00,58.96
1138.00,58.73
1137.00,58.49
1136.00,58.25
1135.00,58.01
1134.00,57.77
1133.00,57.53
1132.00,57.27
1131.00,57.02
1130.00,56.76
1129.00,56.51
1128.00,56.25
1127.00,55.99
1126.00,55.73
1125.00,55.46
1124.00,55.19
1123.00,54.92
1122.00,54.64
1121.00,54.36
1120.00,54.08
1119.00,53.81
1118.00,53.54
1117.00,53.26
1116.00,52.97
1115.00,52.69
1114.00,52.40
1113.00,52.12
1112.00,51.83
1111.00,51.56
1110.00,51.28
1109.00,51.00
1108.00,50.70
1107.00,50.41
1106.00,50.12
1105.00,49.83
1104.00,49.54
1103.00,49.24
1102.00,48.95
1101.00,48.66
1100.00,48.37
1099.00,48.08
1098.00,47.80
1097.00,47.50
1096.00,47.21
1095.00,46.91
1094.00,46.62
1093.00,46.32
1092.00,46.02
1091.00,45.72
1090.00,45.42
1089.00,45.12
1088.00,44.82
1087.00,44.51
1086.00,44.21
1085.00,43.90
1084.00,43.59
1083.00,43.29
1082.00,42.98
1081.00,42.67
1080.00,42.35
1079.00,42.04
1078.00,41.73
1077.00,41.41
1076.00,41.08
1075.00,40.77
1074.00,40.46
1073.00,40.14
1072.00,39.82
1071.00,39.50
1070.00,39.17
1069.00,38.84
1068.00,38.51
1067.00,38.18
1066.00,37.84
1065.00,37.50
1064.00,37.15
1063.00,36.82
1062.00,36.49
1061.00,36.15
1060.00,35.81
1059.00,35.47
1058.00,35.14
1057.00,34.81
1056.00,34.47
1055.00,34.14
1054.00,33.81
1053.00,33.46
1052.00,33.11
1051.00,32.77
1050.00,32.43
1049.00,32.09
1048.00,31.75
1047.00,31.43
1046.00,31.10
1045.00,30.77
1044.00,30.42
1043.00,30.08
1042.00,29.74
1041.00,29.40
1040.00,29.07
1039.00,28.74
1038.00,28.41
1037.00,28.06
1036.00,27.71
1035.00,27.38
1034.00,27.05
1033.00,26.72
1032.00,26.39
1031.00,26.06
1030.00,25.73
1029.00,25.38
1028.00,25.04
1027.00,24.71
1026.00,24.39
1025.00,24.05
1024.00,23.72
1023.00,23.40
1022.00,23.08
1021.00,22.75
1020.00,22.42
1019.00,22.10
1018.00,21.78
1017.00,21.46
1016.00,21.14
1015.00,20.84
1014.00,20.53
1013.00,20.22
1012.00,19.90
1011.00,19.61
1010.00,19.32
1009.00,19.02
1008.00,18.72
1007.00,18.42
1006.00,18.12
1005.00,17.82
1004.00,17.52
1003.00,17.23
1002.00,16.95
1001.00,16.65
1000.00,16.36
999.00,16.07
998.00,15.79
997.00,15.50
996.00,15.21
995.00,14.94
994.00,14.66
993.00,14.38
992.00,14.10
991.00,13.83
990.00,13.57
989.00,13.29
988.00,13.01
987.00,12.75
986.00,12.49
985.00,12.22
984.00,11.96
983.00,11.71
982.00,11.47
981.00,11.21
980.00,10.96
979.00,10.72
978.00,10.48
977.00,10.24
976.00,9.99
975.00,9.77
974.00,9.54
973.00,9.30
972.00,9.07
971.00,8.85
970.00,8.64
969.00,8.42
968.00,8.20
967.00,8.00
966.00,7.79
965.00,7.58
964.00,7.37
963.00,7.18
962.00,7.00
961.00,6.80
960.00,6.60
959.00,6.42
958.00,6.24
957.00,6.05
956.00,5.86
955.00,5.69
954.00,5.52
953.00,5.35
952.00,5.18
951.00,5.02
950.00,4.87
949.00,4.71
948.00,4.54
947.00,4.40
946.00,4.26
945.00,4.11
944.00,3.96
943.00,3.83
942.00,3.71
941.00,3.57
940.00,3.44
939.00,3.32
938.00,3.21
937.00,3.09
936.00,2.97
935.00,2.86
934.00,2.76
933.00,2.65
932.00,2.53
931.00,2.43
930.00,2.34
929.00,2.24
928.00,2.14
927.00,2.06
926.00,1.98
925.00,1.89
924.00,1.80
923.00,1.72
922.00,1.65
921.00,1.58
920.00,1.50
919.00,1.44
918.00,1.38
917.00,1.31
916.00,1.23
915.00,1.19
914.00,1.15
913.00,1.09
912.00,1.03
911.00,0.98
910.00,0.94
909.00,0.89
908.00,0.83
907.00,0.80
906.00,0.77
905.00,0.72
904.00,0.68
903.00,0.66
902.00,0.64
901.00,0.61
900.00,0.57
899.00,0.55
898.00,0.53
897.00,0.50
896.00,0.46
895.00,0.44
894.00,0.43
893.00,0.40
892.00,0.37
891.00,0.36
890.00,0.35
889.00,0.33
888.00,0.30
887.00,0.29
886.00,0.29
885.00,0.26
884.00,0.24
883.00,0.23
882.00,0.24
881.00,0.22
880.00,0.20
879.00,0.20
878.00,0.20
877.00,0.18
876.00,0.16
875.00,0.16
874.00,0.16
873.00,0.13
872.00,0.11
871.00,0.13
870.00,0.15
869.00,0.14
868.00,0.12
867.00,0.11
866.00,0.11
865.00,0.09
864.00,0.07
863.00,0.08
862.00,0.08
861.00,0.07
860.00,0.05
859.00,0.07
858.00,0.09
857.00,0.08
856.00,0.07
855.00,0.09
854.00,0.11
853.00,0.10
852.00,0.09
851.00,0.10
850.00,0.11
849.00,0.10
848.00,0.08
847.00,0.09
846.00,0.10
845.00,0.07
844.00,0.05
843.00,0.05
842.00,0.07
841.00,0.06
840.00,0.06
839.00,0.07
838.00,0.08
837.00,0.06
836.00,0.04
835.00,0.06
834.00,0.08
833.00,0.07
832.00,0.06
831.00,0.08
830.00,0.10
829.00,0.09
828.00,0.09
827.00,0.10
826.00,0.12
825.00,0.11
824.00,0.09
823.00,0.10
822.00,0.11
821.00,0.10
820.00,0.08
819.00,0.10
818.00,0.11
817.00,0.09
816.00,0.06
815.00,0.06
814.00,0.07
813.00,0.06
812.00,0.05
811.00,0.06
810.00,0.07
809.00,0.06
808.00,0.06
807.00,0.07
806.00,0.08
805.00,0.07
804.00,0.05
803.00,0.06
802.00,0.08
801.00,0.08
800.00,0.08
799.00,0.09
798.00,0.11
797.00,0.09
796.00,0.08
795.00,0.09
794.00,0.10
793.00,0.08
792.00,0.06
791.00,0.07
790.00,0.08
789.00,0.07
788.00,0.05
787.00,0.06
786.00,0.08
785.00,0.06
784.00,0.05
783.00,0.05
782.00,0.07
781.00,0.08
780.00,0.08
779.00,0.10
778.00,0.12
777.00,0.10
776.00,0.09
775.00,0.11
774.00,0.12
773.00,0.11
772.00,0.09
771.00,0.10
770.00,0.10
769.00,0.07
768.00,0.05
767.00,0.06
766.00,0.07
765.00,0.06
764.00,0.05
763.00,0.07
762.00,0.09
761.00,0.08
760.00,0.08
759.00,0.10
758.00,0.11
757.00,0.09
756.00,0.07
755.00,0.08
754.00,0.08
753.00,0.07
752.00,0.06
751.00,0.08
750.00,0.10
749.00,0.08
748.00,0.06
747.00,0.08
746.00,0.10
745.00,0.09
744.00,0.07
743.00,0.07
742.00,0.08
741.00,0.06
740.00,0.04
739.00,0.06
738.00,0.07
737.00,0.07
736.00,0.07
735.00,0.08
734.00,0.09
733.00,0.07
732.00,0.06
731.00,0.08
730.00,0.10
729.00,0.09
728.00,0.08
727.00,0.10
726.00,0.12
725.00,0.10
724.00,0.09
723.00,0.10
722.00,0.12
721.00,0.11
720.00,0.09
719.00,0.10
718.00,0.10
717.00,0.08
716.00,0.06
715.00,0.07
714.00,0.08
713.00,0.07
712.00,0.06
711.00,0.08
710.00,0.09
709.00,0.07
708.00,0.05
707.00,0.06
706.00,0.08
705.00,0.07
704.00,0.06
703.00,0.09
702.00,0.11
701.00,0.09
700.00,0.07
699.00,0.08
698.00,0.09
697.00,0.07
696.00,0.05
695.00,0.07
694.00,0.10
693.00,0.09
692.00,0.08
691.00,0.09
690.00,0.12
689.00,0.11
688.00,0.10
687.00,0.12
686.00,0.13
685.00,0.10
684.00,0.08
683.00,0.09
682.00,0.11
681.00,0.10
680.00,0.09
679.00,0.11
678.00,0.13
677.00,0.12
676.00,0.10
675.00,0.12
674.00,0.13
673.00,0.11
672.00,0.09
671.00,0.11
670.00,0.14
669.00,0.12
668.00,0.10
667.00,0.11
666.00,0.12
665.00,0.10
664.00,0.08
663.00,0.11
662.00,0.13
661.00,0.13
660.00,0.12
659.00,0.14
658.00,0.15
657.00,0.12
656.00,0.09
655.00,0.10
654.00,0.12
653.00,0.11
652.00,0.10
651.00,0.13
650.00,0.15
649.00,0.14
648.00,0.12
647.00,0.14
646.00,0.16
645.00,0.14
644.00,0.11
643.00,0.13
642.00,0.15
641.00,0.14
640.00,0.11
639.00,0.13
638.00,0.14
637.00,0.12
636.00,0.10
635.00,0.12
634.00,0.15
633.00,0.14
632.00,0.12
631.00,0.14
630.00,0.15
629.00,0.12
628.00,0.10
627.00,0.14
626.00,0.19
625.00,0.18
624.00,0.16
623.00,0.17
622.00,0.19
621.00,0.16
620.00,0.14
619.00,0.17
618.00,0.21
617.00,0.20
616.00,0.17
615.00,0.20
614.00,0.23
613.00,0.21
612.00,0.18
611.00,0.20
610.00,0.21
609.00,0.18
608.00,0.15
607.00,0.17
606.00,0.19
605.00,0.17
604.00,0.16
603.00,0.17
602.00,0.18
601.00,0.16
600.00,0.14
599.00,0.18
598.00,0.22
597.00,0.20
596.00,0.16
595.00,0.19
594.00,0.23
593.00,0.22
592.00,0.19
591.00,0.22
590.00,0.25
589.00,0.21
588.00,0.19
587.00,0.22
586.00,0.24
585.00,0.21
584.00,0.17
583.00,0.19
582.00,0.21
581.00,0.18
580.00,0.16
579.00,0.19
578.00,0.22
577.00,0.18
576.00,0.14
575.00,0.16
574.00,0.21
573.00,0.19
572.00,0.18
571.00,0.23
570.00,0.28
569.00,0.25
568.00,0.21
567.00,0.22
566.00,0.24
565.00,0.20
564.00,0.18
563.00,0.24
562.00,0.28
561.00,0.24
560.00,0.21
559.00,0.25
558.00,0.30
557.00,0.27
556.00,0.21
555.00,0.22
554.00,0.24
553.00,0.22
552.00,0.21
551.00,0.30
550.00,0.37
549.00,0.34
548.00,0.29
547.00,0.31
546.00,0.32
545.00,0.27
544.00,0.23
543.00,0.28
542.00,0.31
541.00,0.25
540.00,0.19
539.00,0.23
538.00,0.30
537.00,0.27
536.00,0.23
535.00,0.27
534.00,0.31
533.00,0.28
532.00,0.26
531.00,0.33
530.00,0.39
529.00,0.35
528.00,0.29
527.00,0.31
526.00,0.35
525.00,0.29
524.00,0.23
523.00,0.28
522.00,0.33
521.00,0.30
520.00,0.27
519.00,0.30
518.00,0.34
517.00,0.28
516.00,0.23
515.00,0.30
514.00,0.38
513.00,0.35
512.00,0.31
511.00,0.35
510.00,0.40
509.00,0.35
508.00,0.30
507.00,0.36
506.00,0.41
505.00,0.35
504.00,0.28
503.00,0.30
502.00,0.33
501.00,0.27
500.00,0.23
499.00,0.33
498.00,0.44
497.00,0.42
496.00,0.38
495.00,0.43
494.00,0.48
493.00,0.42
492.00,0.36
491.00,0.40
490.00,0.45
489.00,0.39
488.00,0.31
487.00,0.34
486.00,0.38
485.00,0.33
484.00,0.31
483.00,0.42
482.00,0.53
481.00,0.51
480.00,0.48
479.00,0.55
478.00,0.61
477.00,0.52
476.00,0.46
475.00,0.57
474.00,0.68
473.00,0.63
472.00,0.54
471.00,0.57
470.00,0.61
469.00,0.50
468.00,0.40
467.00,0.48
466.00,0.60
465.00,0.56
464.00,0.54
463.00,0.67
462.00,0.79
461.00,0.72
460.00,0.64
459.00,0.69
458.00,0.71
457.00,0.55
456.00,0.41
455.00,0.51
454.00,0.64
453.00,0.58
452.00,0.53
451.00,0.67
450.00,0.82
