Created as New Dataset,Sample 001 By Administrator Date Monday, October 27 2025
cm-1,%T
4000.00,99.97
3999.00,99.97
3998.00,99.98
3997.00,99.98
3996.00,99.97
3995.00,99.97
3994.00,99.98
3993.00,99.99
3992.00,100.00
3991.00,99.99
3990.00,99.99
3989.00,99.99
3988.00,99.99
3987.00,99.98
3986.00,99.97
3985.00,99.97
3984.00,99.97
3983.00,99.98
3982.00,99.98
3981.00,99.98
3980.00,99.98
3979.00,99.99
3978.00,99.99
3977.00,99.98
3976.00,99.98
3975.00,99.98
3974.00,99.99
3973.00,100.00
3972.00,100.01
3971.00,100.01
3970.00,100.01
3969.00,100.01
3968.00,100.01
3967.00,100.02
3966.00,100.02
3965.00,100.00
3964.00,99.98
3963.00,99.96
3962.00,99.96
3961.00,99.98
3960.00,100.01
3959.00,100.02
3958.00,100.01
3957.00,99.99
3956.00,99.99
3955.00,100.00
3954.00,100.02
3953.00,100.04
3952.00,100.04
3951.00,100.03
3950.00,100.00
3949.00,99.99
3948.00,100.01
3947.00,100.06
3946.00,100.12
3945.00,100.15
3944.00,100.12
3943.00,100.07
3942.00,100.07
3941.00,100.10
3940.00,100.12
3939.00,100.08
3938.00,100.01
3937.00,99.98
3936.00,100.00
3935.00,100.00
3934.00,99.97
3933.00,99.93
3932.00,99.93
3931.00,100.00
3930.00,100.09
3929.00,100.16
3928.00,100.20
3927.00,100.21
3926.00,100.16
3925.00,100.11
3924.00,100.11
3923.00,100.20
3922.00,100.26
3921.00,100.20
3920.00,100.06
3919.00,99.96
3918.00,99.94
3917.00,99.94
3916.00,99.98
3915.00,100.06
3914.00,100.13
3913.00,100.11
3912.00,100.04
3911.00,100.02
3910.00,100.06
3909.00,100.12
3908.00,100.19
3907.00,100.31
3906.00,100.44
3905.00,100.45
3904.00,100.35
3903.00,100.25
3902.00,100.24
3901.00,100.26
3900.00,100.21
3899.00,100.16
3898.00,100.17
3897.00,100.23
3896.00,100.23
3895.00,100.21
3894.00,100.26
3893.00,100.39
3892.00,100.44
3891.00,100.33
3890.00,100.18
3889.00,100.13
3888.00,100.14
3887.00,100.05
3886.00,99.91
3885.00,99.91
3884.00,100.10
3883.00,100.28
3882.00,100.26
3881.00,100.08
3880.00,100.02
3879.00,100.14
3878.00,100.32
3877.00,100.38
3876.00,100.24
3875.00,100.02
3874.00,99.98
3873.00,100.22
3872.00,100.55
3871.00,100.58
3870.00,100.29
3869.00,100.12
3868.00,100.31
3867.00,100.59
3866.00,100.55
3865.00,100.29
3864.00,100.18
3863.00,100.29
3862.00,100.34
3861.00,100.25
3860.00,100.08
3859.00,99.82
3858.00,99.47
3857.00,99.18
3856.00,99.17
3855.00,99.33
3854.00,99.31
3853.00,99.20
3852.00,99.30
3851.00,99.60
3850.00,99.83
3849.00,99.90
3848.00,99.94
3847.00,100.01
3846.00,100.04
3845.00,100.05
3844.00,100.10
3843.00,100.15
3842.00,100.16
3841.00,100.22
3840.00,100.37
3839.00,100.52
3838.00,100.56
3837.00,100.50
3836.00,100.46
3835.00,100.49
3834.00,100.52
3833.00,100.46
3832.00,100.31
3831.00,100.17
3830.00,100.10
3829.00,100.08
3828.00,100.04
3827.00,99.95
3826.00,99.90
3825.00,100.04
3824.00,100.33
3823.00,100.52
3822.00,100.39
3821.00,100.12
3820.00,100.03
3819.00,100.18
3818.00,100.32
3817.00,100.12
3816.00,99.73
3815.00,99.58
3814.00,99.80
3813.00,100.07
3812.00,100.10
3811.00,99.97
3810.00,99.96
3809.00,100.13
3808.00,100.19
3807.00,100.03
3806.00,99.85
3805.00,99.90
3804.00,100.10
3803.00,100.17
3802.00,99.99
3801.00,99.83
3800.00,99.91
3799.00,100.09
3798.00,100.14
3797.00,100.03
3796.00,99.97
3795.00,100.04
3794.00,100.15
3793.00,100.15
3792.00,100.07
3791.00,100.01
3790.00,100.03
3789.00,100.04
3788.00,99.99
3787.00,99.89
3786.00,99.83
3785.00,99.85
3784.00,99.95
3783.00,100.06
3782.00,100.08
3781.00,99.99
3780.00,99.87
3779.00,99.87
3778.00,100.01
3777.00,100.16
3776.00,100.19
3775.00,100.09
3774.00,99.99
3773.00,100.01
3772.00,100.05
3771.00,100.01
3770.00,99.98
3769.00,100.07
3768.00,100.22
3767.00,100.24
3766.00,100.11
3765.00,100.01
3764.00,100.04
3763.00,100.15
3762.00,100.16
3761.00,100.04
3760.00,99.96
3759.00,100.03
3758.00,100.10
3757.00,100.01
3756.00,99.82
3755.00,99.60
3754.00,99.34
3753.00,99.06
3752.00,98.91
3751.00,98.91
3750.00,98.91
3749.00,98.83
3748.00,98.84
3747.00,99.03
3746.00,99.11
3745.00,98.88
3744.00,98.71
3743.00,98.96
3742.00,99.38
3741.00,99.56
3740.00,99.49
3739.00,99.53
3738.00,99.81
3737.00,100.00
3736.00,100.03
3735.00,100.14
3734.00,100.31
3733.00,100.32
3732.00,100.11
3731.00,99.92
3730.00,99.92
3729.00,99.99
3728.00,99.99
3727.00,99.92
3726.00,99.91
3725.00,99.98
3724.00,100.04
3723.00,100.03
3722.00,100.00
3721.00,100.00
3720.00,100.03
3719.00,100.05
3718.00,100.03
3717.00,99.98
3716.00,99.95
3715.00,99.94
3714.00,99.88
3713.00,99.80
3712.00,99.81
3711.00,99.93
3710.00,100.04
3709.00,100.09
3708.00,100.09
3707.00,100.05
3706.00,100.01
3705.00,100.02
3704.00,100.05
3703.00,100.05
3702.00,100.05
3701.00,100.06
3700.00,100.11
3699.00,100.12
3698.00,100.03
3697.00,99.88
3696.00,99.85
3695.00,99.94
3694.00,99.99
3693.00,99.93
3692.00,99.90
3691.00,100.04
3690.00,100.17
3689.00,100.07
3688.00,99.85
3687.00,99.74
3686.00,99.80
3685.00,99.88
3684.00,99.88
3683.00,99.85
3682.00,99.85
3681.00,99.82
3680.00,99.77
3679.00,99.84
3678.00,100.10
3677.00,100.25
3676.00,100.04
3675.00,99.83
3674.00,99.98
3673.00,100.39
3672.00,100.63
3671.00,100.41
3670.00,100.06
3669.00,99.96
3668.00,100.04
3667.00,100.12
3666.00,100.07
3665.00,99.94
3664.00,99.86
3663.00,99.86
3662.00,99.88
3661.00,99.87
3660.00,99.89
3659.00,99.98
3658.00,100.09
3657.00,100.07
3656.00,99.97
3655.00,99.97
3654.00,100.10
3653.00,100.25
3652.00,100.34
3651.00,100.43
3650.00,100.52
3649.00,100.41
3648.00,100.09
3647.00,99.86
3646.00,99.86
3645.00,99.94
3644.00,99.90
3643.00,99.79
3642.00,99.72
3641.00,99.73
3640.00,99.74
3639.00,99.70
3638.00,99.69
3637.00,99.73
3636.00,99.77
3635.00,99.71
3634.00,99.60
3633.00,99.55
3632.00,99.64
3631.00,99.79
3630.00,99.79
3629.00,99.66
3628.00,99.56
3627.00,99.59
3626.00,99.66
3625.00,99.66
3624.00,99.64
3623.00,99.73
3622.00,99.97
3621.00,100.19
3620.00,100.25
3619.00,100.15
3618.00,99.98
3617.00,99.84
3616.00,99.75
3615.00,99.68
3614.00,99.63
3613.00,99.64
3612.00,99.70
3611.00,99.72
3610.00,99.60
3609.00,99.42
3608.00,99.37
3607.00,99.48
3606.00,99.64
3605.00,99.70
3604.00,99.63
3603.00,99.50
3602.00,99.38
3601.00,99.33
3600.00,99.38
3599.00,99.49
3598.00,99.59
3597.00,99.64
3596.00,99.65
3595.00,99.65
3594.00,99.65
3593.00,99.63
3592.00,99.63
3591.00,99.61
3590.00,99.57
3589.00,99.52
3588.00,99.54
3587.00,99.65
3586.00,99.75
3585.00,99.76
3584.00,99.70
3583.00,99.63
3582.00,99.58
3581.00,99.56
3580.00,99.57
3579.00,99.58
3578.00,99.57
3577.00,99.54
3576.00,99.52
3575.00,99.52
3574.00,99.54
3573.00,99.57
3572.00,99.60
3571.00,99.61
3570.00,99.58
3569.00,99.48
3568.00,99.39
3567.00,99.41
3566.00,99.53
3565.00,99.65
3564.00,99.69
3563.00,99.65
3562.00,99.59
3561.00,99.56
3560.00,99.56
3559.00,99.57
3558.00,99.57
3557.00,99.57
3556.00,99.55
3555.00,99.50
3554.00,99.44
3553.00,99.40
3552.00,99.41
3551.00,99.47
3550.00,99.51
3549.00,99.49
3548.00,99.42
3547.00,99.38
3546.00,99.40
3545.00,99.44
3544.00,99.49
3543.00,99.52
3542.00,99.53
3541.00,99.52
3540.00,99.50
3539.00,99.49
3538.00,99.48
3537.00,99.46
3536.00,99.46
3535.00,99.49
3534.00,99.50
3533.00,99.47
3532.00,99.41
3531.00,99.36
3530.00,99.34
3529.00,99.33
3528.00,99.34
3527.00,99.38
3526.00,99.41
3525.00,99.41
3524.00,99.38
3523.00,99.38
3522.00,99.43
3521.00,99.46
3520.00,99.45
3519.00,99.42
3518.00,99.41
3517.00,99.40
3516.00,99.40
3515.00,99.39
3514.00,99.38
3513.00,99.37
3512.00,99.34
3511.00,99.33
3510.00,99.33
3509.00,99.35
3508.00,99.38
3507.00,99.38
3506.00,99.34
3505.00,99.28
3504.00,99.25
3503.00,99.29
3502.00,99.37
3501.00,99.41
3500.00,99.40
3499.00,99.36
3498.00,99.31
3497.00,99.29
3496.00,99.29
3495.00,99.31
3494.00,99.33
3493.00,99.33
3492.00,99.32
3491.00,99.30
3490.00,99.29
3489.00,99.27
3488.00,99.27
3487.00,99.29
3486.00,99.31
3485.00,99.30
3484.00,99.26
3483.00,99.23
3482.00,99.23
3481.00,99.26
3480.00,99.29
3479.00,99.30
3478.00,99.29
3477.00,99.26
3476.00,99.24
3475.00,99.25
3474.00,99.26
3473.00,99.26
3472.00,99.26
3471.00,99.25
3470.00,99.24
3469.00,99.23
3468.00,99.22
3467.00,99.22
3466.00,99.23
3465.00,99.23
3464.00,99.22
3463.00,99.22
3462.00,99.22
3461.00,99.23
3460.00,99.24
3459.00,99.24
3458.00,99.24
3457.00,99.23
3456.00,99.23
3455.00,99.22
3454.00,99.22
3453.00,99.21
3452.00,99.21
3451.00,99.21
3450.00,99.19
3449.00,99.15
3448.00,99.12
3447.00,99.13
3446.00,99.18
3445.00,99.21
3444.00,99.21
3443.00,99.18
3442.00,99.17
3441.00,99.19
3440.00,99.20
3439.00,99.19
3438.00,99.19
3437.00,99.18
3436.00,99.18
3435.00,99.17
3434.00,99.17
3433.00,99.17
3432.00,99.16
3431.00,99.16
3430.00,99.17
3429.00,99.17
3428.00,99.17
3427.00,99.17
3426.00,99.18
3425.00,99.17
3424.00,99.16
3423.00,99.15
3422.00,99.13
3421.00,99.14
3420.00,99.15
3419.00,99.17
3418.00,99.18
3417.00,99.18
3416.00,99.17
3415.00,99.15
3414.00,99.15
3413.00,99.15
3412.00,99.14
3411.00,99.14
3410.00,99.14
3409.00,99.15
3408.00,99.15
3407.00,99.15
3406.00,99.15
3405.00,99.14
3404.00,99.13
3403.00,99.13
3402.00,99.13
3401.00,99.13
3400.00,99.13
3399.00,99.12
3398.00,99.12
3397.00,99.13
3396.00,99.13
3395.00,99.14
3394.00,99.13
3393.00,99.12
3392.00,99.13
3391.00,99.14
3390.00,99.16
3389.00,99.16
3388.00,99.15
3387.00,99.14
3386.00,99.14
3385.00,99.14
3384.00,99.15
3383.00,99.16
3382.00,99.17
3381.00,99.17
3380.00,99.17
3379.00,99.17
3378.00,99.17
3377.00,99.16
3376.00,99.16
3375.00,99.16
3374.00,99.17
3373.00,99.17
3372.00,99.17
3371.00,99.17
3370.00,99.16
3369.00,99.15
3368.00,99.14
3367.00,99.14
3366.00,99.15
3365.00,99.16
3364.00,99.17
3363.00,99.18
3362.00,99.19
3361.00,99.19
3360.00,99.19
3359.00,99.19
3358.00,99.19
3357.00,99.18
3356.00,99.18
3355.00,99.19
3354.00,99.20
3353.00,99.20
3352.00,99.21
3351.00,99.21
3350.00,99.22
3349.00,99.22
3348.00,99.21
3347.00,99.21
3346.00,99.21
3345.00,99.21
3344.00,99.21
3343.00,99.21
3342.00,99.21
3341.00,99.21
3340.00,99.21
3339.00,99.21
3338.00,99.21
3337.00,99.22
3336.00,99.23
3335.00,99.24
3334.00,99.25
3333.00,99.25
3332.00,99.25
3331.00,99.24
3330.00,99.24
3329.00,99.24
3328.00,99.24
3327.00,99.24
3326.00,99.25
3325.00,99.25
3324.00,99.25
3323.00,99.26
3322.00,99.26
3321.00,99.26
3320.00,99.27
3319.00,99.27
3318.00,99.27
3317.00,99.27
3316.00,99.27
3315.00,99.26
3314.00,99.26
3313.00,99.26
3312.00,99.26
3311.00,99.26
3310.00,99.25
3309.00,99.24
3308.00,99.25
3307.00,99.27
3306.00,99.27
3305.00,99.27
3304.00,99.27
3303.00,99.28
3302.00,99.30
3301.00,99.30
3300.00,99.30
3299.00,99.30
3298.00,99.29
3297.00,99.29
3296.00,99.28
3295.00,99.27
3294.00,99.26
3293.00,99.26
3292.00,99.27
3291.00,99.29
3290.00,99.30
3289.00,99.30
3288.00,99.31
3287.00,99.31
3286.00,99.32
3285.00,99.32
3284.00,99.32
3283.00,99.32
3282.00,99.33
3281.00,99.32
3280.00,99.32
3279.00,99.31
3278.00,99.30
3277.00,99.28
3276.00,99.27
3275.00,99.27
3274.00,99.28
3273.00,99.30
3272.00,99.31
3271.00,99.33
3270.00,99.33
3269.00,99.34
3268.00,99.34
3267.00,99.34
3266.00,99.34
3265.00,99.34
3264.00,99.34
3263.00,99.34
3262.00,99.34
3261.00,99.34
3260.00,99.33
3259.00,99.33
3258.00,99.33
3257.00,99.33
3256.00,99.32
3255.00,99.33
3254.00,99.34
3253.00,99.35
3252.00,99.37
3251.00,99.38
3250.00,99.38
3249.00,99.37
3248.00,99.36
3247.00,99.34
3246.00,99.33
3245.00,99.34
3244.00,99.36
3243.00,99.38
3242.00,99.38
3241.00,99.38
3240.00,99.38
3239.00,99.38
3238.00,99.38
3237.00,99.38
3236.00,99.38
3235.00,99.38
3234.00,99.38
3233.00,99.38
3232.00,99.38
3231.00,99.39
3230.00,99.40
3229.00,99.40
3228.00,99.41
3227.00,99.42
3226.00,99.42
3225.00,99.41
3224.00,99.41
3223.00,99.40
3222.00,99.40
3221.00,99.39
3220.00,99.39
3219.00,99.41
3218.00,99.42
3217.00,99.42
3216.00,99.40
3215.00,99.39
3214.00,99.40
3213.00,99.41
3212.00,99.42
3211.00,99.42
3210.00,99.43
3209.00,99.44
3208.00,99.46
3207.00,99.47
3206.00,99.48
3205.00,99.47
3204.00,99.48
3203.00,99.48
3202.00,99.47
3201.00,99.46
3200.00,99.44
3199.00,99.43
3198.00,99.44
3197.00,99.45
3196.00,99.47
3195.00,99.49
3194.00,99.50
3193.00,99.50
3192.00,99.50
3191.00,99.51
3190.00,99.51
3189.00,99.51
3188.00,99.50
3187.00,99.50
3186.00,99.50
3185.00,99.50
3184.00,99.51
3183.00,99.52
3182.00,99.52
3181.00,99.51
3180.00,99.49
3179.00,99.48
3178.00,99.49
3177.00,99.51
3176.00,99.53
3175.00,99.55
3174.00,99.55
3173.00,99.55
3172.00,99.55
3171.00,99.55
3170.00,99.55
3169.00,99.55
3168.00,99.56
3167.00,99.57
3166.00,99.57
3165.00,99.57
3164.00,99.58
3163.00,99.58
3162.00,99.58
3161.00,99.58
3160.00,99.58
3159.00,99.58
3158.00,99.58
3157.00,99.59
3156.00,99.59
3155.00,99.60
3154.00,99.60
3153.00,99.60
3152.00,99.61
3151.00,99.61
3150.00,99.61
3149.00,99.61
3148.00,99.62
3147.00,99.63
3146.00,99.63
3145.00,99.63
3144.00,99.62
3143.00,99.63
3142.00,99.63
3141.00,99.63
3140.00,99.63
3139.00,99.64
3138.00,99.64
3137.00,99.64
3136.00,99.64
3135.00,99.63
3134.00,99.62
3133.00,99.62
3132.00,99.64
3131.00,99.66
3130.00,99.66
3129.00,99.65
3128.00,99.64
3127.00,99.64
3126.00,99.64
3125.00,99.63
3124.00,99.63
3123.00,99.62
3122.00,99.63
3121.00,99.64
3120.00,99.64
3119.00,99.64
3118.00,99.63
3117.00,99.63
3116.00,99.64
3115.00,99.66
3114.00,99.68
3113.00,99.69
3112.00,99.69
3111.00,99.69
3110.00,99.69
3109.00,99.69
3108.00,99.70
3107.00,99.70
3106.00,99.70
3105.00,99.70
3104.00,99.69
3103.00,99.68
3102.00,99.67
3101.00,99.67
3100.00,99.69
3099.00,99.70
3098.00,99.69
3097.00,99.68
3096.00,99.68
3095.00,99.70
3094.00,99.72
3093.00,99.73
3092.00,99.73
3091.00,99.73
3090.00,99.73
3089.00,99.73
3088.00,99.74
3087.00,99.74
3086.00,99.74
3085.00,99.73
3084.00,99.73
3083.00,99.72
3082.00,99.71
3081.00,99.71
3080.00,99.72
3079.00,99.73
3078.00,99.74
3077.00,99.75
3076.00,99.76
3075.00,99.77
3074.00,99.77
3073.00,99.77
3072.00,99.77
3071.00,99.77
3070.00,99.75
3069.00,99.74
3068.00,99.72
3067.00,99.71
3066.00,99.71
3065.00,99.73
3064.00,99.75
3063.00,99.78
3062.00,99.79
3061.00,99.78
3060.00,99.78
3059.00,99.77
3058.00,99.76
3057.00,99.76
3056.00,99.76
3055.00,99.78
3054.00,99.79
3053.00,99.80
3052.00,99.79
3051.00,99.79
3050.00,99.78
3049.00,99.78
3048.00,99.79
3047.00,99.80
3046.00,99.81
3045.00,99.81
3044.00,99.81
3043.00,99.81
3042.00,99.81
3041.00,99.81
3040.00,99.81
3039.00,99.81
3038.00,99.80
3037.00,99.79
3036.00,99.79
3035.00,99.78
3034.00,99.78
3033.00,99.77
3032.00,99.77
3031.00,99.79
3030.00,99.81
3029.00,99.82
3028.00,99.83
3027.00,99.82
3026.00,99.82
3025.00,99.82
3024.00,99.83
3023.00,99.83
3022.00,99.83
3021.00,99.83
3020.00,99.82
3019.00,99.81
3018.00,99.80
3017.00,99.80
3016.00,99.80
3015.00,99.80
3014.00,99.80
3013.00,99.81
3012.00,99.81
3011.00,99.83
3010.00,99.84
3009.00,99.85
3008.00,99.85
3007.00,99.85
3006.00,99.84
3005.00,99.84
3004.00,99.84
3003.00,99.85
3002.00,99.85
3001.00,99.85
3000.00,99.84
2999.00,99.85
2998.00,99.85
2997.00,99.85
2996.00,99.85
2995.00,99.85
2994.00,99.86
2993.00,99.86
2992.00,99.86
2991.00,99.86
2990.00,99.86
2989.00,99.85
2988.00,99.86
2987.00,99.86
2986.00,99.86
2985.00,99.86
2984.00,99.86
2983.00,99.86
2982.00,99.86
2981.00,99.86
2980.00,99.86
2979.00,99.87
2978.00,99.87
2977.00,99.87
2976.00,99.87
2975.00,99.87
2974.00,99.87
2973.00,99.87
2972.00,99.87
2971.00,99.87
2970.00,99.87
2969.00,99.87
2968.00,99.87
2967.00,99.87
2966.00,99.87
2965.00,99.87
2964.00,99.88
2963.00,99.88
2962.00,99.88
2961.00,99.88
2960.00,99.88
2959.00,99.89
2958.00,99.89
2957.00,99.89
2956.00,99.88
2955.00,99.88
2954.00,99.88
2953.00,99.88
2952.00,99.88
2951.00,99.88
2950.00,99.88
2949.00,99.88
2948.00,99.87
2947.00,99.87
2946.00,99.87
2945.00,99.88
2944.00,99.88
2943.00,99.89
2942.00,99.88
2941.00,99.88
2940.00,99.88
2939.00,99.88
2938.00,99.88
2937.00,99.89
2936.00,99.89
2935.00,99.89
2934.00,99.88
2933.00,99.88
2932.00,99.88
2931.00,99.88
2930.00,99.89
2929.00,99.89
2928.00,99.89
2927.00,99.90
2926.00,99.91
2925.00,99.92
2924.00,99.93
2923.00,99.94
2922.00,99.95
2921.00,99.95
2920.00,99.96
2919.00,99.96
2918.00,99.96
2917.00,99.96
2916.00,99.96
2915.00,99.95
2914.00,99.95
2913.00,99.94
2912.00,99.93
2911.00,99.93
2910.00,99.92
2909.00,99.92
2908.00,99.92
2907.00,99.92
2906.00,99.92
2905.00,99.92
2904.00,99.92
2903.00,99.92
2902.00,99.92
2901.00,99.93
2900.00,99.93
2899.00,99.93
2898.00,99.93
2897.00,99.93
2896.00,99.92
2895.00,99.92
2894.00,99.92
2893.00,99.92
2892.00,99.93
2891.00,99.93
2890.00,99.93
2889.00,99.93
2888.00,99.94
2887.00,99.94
2886.00,99.94
2885.00,99.94
2884.00,99.94
2883.00,99.94
2882.00,99.93
2881.00,99.93
2880.00,99.93
2879.00,99.93
2878.00,99.93
2877.00,99.93
2876.00,99.92
2875.00,99.92
2874.00,99.92
2873.00,99.92
2872.00,99.92
2871.00,99.92
2870.00,99.92
2869.00,99.92
2868.00,99.92
2867.00,99.92
2866.00,99.93
2865.00,99.93
2864.00,99.93
2863.00,99.92
2862.00,99.92
2861.00,99.92
2860.00,99.92
2859.00,99.92
2858.00,99.93
2857.00,99.94
2856.00,99.94
2855.00,99.95
2854.00,99.95
2853.00,99.96
2852.00,99.97
2851.00,99.99
2850.00,99.99
2849.00,99.98
2848.00,99.98
2847.00,99.96
2846.00,99.95
2845.00,99.95
2844.00,99.96
2843.00,99.96
2842.00,99.96
2841.00,99.95
2840.00,99.95
2839.00,99.94
2838.00,99.94
2837.00,99.93
2836.00,99.93
2835.00,99.94
2834.00,99.94
2833.00,99.94
2832.00,99.94
2831.00,99.94
2830.00,99.94
2829.00,99.94
2828.00,99.94
2827.00,99.95
2826.00,99.95
2825.00,99.95
2824.00,99.95
2823.00,99.95
2822.00,99.95
2821.00,99.95
2820.00,99.95
2819.00,99.95
2818.00,99.95
2817.00,99.95
2816.00,99.95
2815.00,99.95
2814.00,99.95
2813.00,99.95
2812.00,99.95
2811.00,99.96
2810.00,99.96
2809.00,99.96
2808.00,99.96
2807.00,99.96
2806.00,99.96
2805.00,99.96
2804.00,99.96
2803.00,99.96
2802.00,99.95
2801.00,99.95
2800.00,99.95
2799.00,99.95
2798.00,99.95
2797.00,99.94
2796.00,99.95
2795.00,99.95
2794.00,99.95
2793.00,99.95
2792.00,99.95
2791.00,99.95
2790.00,99.95
2789.00,99.95
2788.00,99.95
2787.00,99.95
2786.00,99.95
2785.00,99.95
2784.00,99.95
2783.00,99.96
2782.00,99.95
2781.00,99.95
2780.00,99.96
2779.00,99.97
2778.00,99.97
2777.00,99.98
2776.00,99.99
2775.00,99.99
2774.00,99.98
2773.00,99.97
2772.00,99.97
2771.00,99.97
2770.00,99.96
2769.00,99.96
2768.00,99.96
2767.00,99.96
2766.00,99.96
2765.00,99.96
2764.00,99.97
2763.00,99.97
2762.00,99.97
2761.00,99.97
2760.00,99.97
2759.00,99.97
2758.00,99.96
2757.00,99.96
2756.00,99.96
2755.00,99.96
2754.00,99.96
2753.00,99.96
2752.00,99.96
2751.00,99.96
2750.00,99.96
2749.00,99.96
2748.00,99.96
2747.00,99.96
2746.00,99.96
2745.00,99.96
2744.00,99.96
2743.00,99.96
2742.00,99.96
2741.00,99.95
2740.00,99.95
2739.00,99.95
2738.00,99.95
2737.00,99.96
2736.00,99.96
2735.00,99.96
2734.00,99.96
2733.00,99.96
2732.00,99.96
2731.00,99.96
2730.00,99.96
2729.00,99.97
2728.00,99.97
2727.00,99.97
2726.00,99.97
2725.00,99.97
2724.00,99.96
2723.00,99.96
2722.00,99.96
2721.00,99.96
2720.00,99.96
2719.00,99.96
2718.00,99.96
2717.00,99.96
2716.00,99.97
2715.00,99.97
2714.00,99.97
2713.00,99.97
2712.00,99.97
2711.00,99.97
2710.00,99.97
2709.00,99.96
2708.00,99.97
2707.00,99.97
2706.00,99.97
2705.00,99.97
2704.00,99.97
2703.00,99.96
2702.00,99.96
2701.00,99.96
2700.00,99.96
2699.00,99.96
2698.00,99.96
2697.00,99.96
2696.00,99.96
2695.00,99.96
2694.00,99.96
2693.00,99.96
2692.00,99.96
2691.00,99.96
2690.00,99.96
2689.00,99.96
2688.00,99.96
2687.00,99.97
2686.00,99.97
2685.00,99.97
2684.00,99.97
2683.00,99.97
2682.00,99.97
2681.00,99.96
2680.00,99.96
2679.00,99.96
2678.00,99.96
2677.00,99.96
2676.00,99.97
2675.00,99.97
2674.00,99.97
2673.00,99.97
2672.00,99.97
2671.00,99.97
2670.00,99.97
2669.00,99.96
2668.00,99.96
2667.00,99.97
2666.00,99.96
2665.00,99.96
2664.00,99.97
2663.00,99.97
2662.00,99.97
2661.00,99.97
2660.00,99.97
2659.00,99.97
2658.00,99.97
2657.00,99.97
2656.00,99.97
2655.00,99.97
2654.00,99.97
2653.00,99.97
2652.00,99.97
2651.00,99.97
2650.00,99.96
2649.00,99.96
2648.00,99.96
2647.00,99.97
2646.00,99.97
2645.00,99.97
2644.00,99.97
2643.00,99.98
2642.00,99.98
2641.00,99.97
2640.00,99.97
2639.00,99.97
2638.00,99.97
2637.00,99.96
2636.00,99.97
2635.00,99.97
2634.00,99.97
2633.00,99.97
2632.00,99.98
2631.00,99.98
2630.00,99.98
2629.00,99.97
2628.00,99.97
2627.00,99.97
2626.00,99.97
2625.00,99.97
2624.00,99.97
2623.00,99.97
2622.00,99.97
2621.00,99.97
2620.00,99.97
2619.00,99.97
2618.00,99.97
2617.00,99.97
2616.00,99.97
2615.00,99.97
2614.00,99.98
2613.00,99.98
2612.00,99.98
2611.00,99.98
2610.00,99.98
2609.00,99.98
2608.00,99.98
2607.00,99.97
2606.00,99.97
2605.00,99.97
2604.00,99.97
2603.00,99.97
2602.00,99.97
2601.00,99.97
2600.00,99.97
2599.00,99.97
2598.00,99.97
2597.00,99.97
2596.00,99.97
2595.00,99.98
2594.00,99.98
2593.00,99.98
2592.00,99.98
2591.00,99.98
2590.00,99.97
2589.00,99.97
2588.00,99.97
2587.00,99.97
2586.00,99.96
2585.00,99.97
2584.00,99.97
2583.00,99.97
2582.00,99.97
2581.00,99.97
2580.00,99.97
2579.00,99.98
2578.00,99.98
2577.00,99.98
2576.00,99.98
2575.00,99.98
2574.00,99.98
2573.00,99.98
2572.00,99.98
2571.00,99.98
2570.00,99.98
2569.00,99.98
2568.00,99.97
2567.00,99.97
2566.00,99.97
2565.00,99.97
2564.00,99.97
2563.00,99.98
2562.00,99.98
2561.00,99.98
2560.00,99.98
2559.00,99.98
2558.00,99.97
2557.00,99.97
2556.00,99.98
2555.00,99.98
2554.00,99.98
2553.00,99.98
2552.00,99.98
2551.00,99.98
2550.00,99.98
2549.00,99.97
2548.00,99.97
2547.00,99.97
2546.00,99.97
2545.00,99.97
2544.00,99.97
2543.00,99.97
2542.00,99.97
2541.00,99.96
2540.00,99.96
2539.00,99.96
2538.00,99.96
2537.00,99.96
2536.00,99.97
2535.00,99.97
2534.00,99.98
2533.00,99.98
2532.00,99.98
2531.00,99.97
2530.00,99.97
2529.00,99.97
2528.00,99.97
2527.00,99.97
2526.00,99.97
2525.00,99.98
2524.00,99.98
2523.00,99.98
2522.00,99.98
2521.00,99.97
2520.00,99.98
2519.00,99.98
2518.00,99.98
2517.00,99.98
2516.00,99.98
2515.00,99.98
2514.00,99.98
2513.00,99.98
2512.00,99.98
2511.00,99.98
2510.00,99.97
2509.00,99.97
2508.00,99.97
2507.00,99.98
2506.00,99.97
2505.00,99.97
2504.00,99.98
2503.00,99.97
2502.00,99.97
2501.00,99.97
2500.00,99.97
2499.00,99.98
2498.00,99.98
2497.00,99.98
2496.00,99.98
2495.00,99.98
2494.00,99.98
2493.00,99.98
2492.00,99.98
2491.00,99.97
2490.00,99.97
2489.00,99.97
2488.00,99.97
2487.00,99.97
2486.00,99.98
2485.00,99.98
2484.00,99.98
2483.00,99.98
2482.00,99.98
2481.00,99.97
2480.00,99.98
2479.00,99.97
2478.00,99.97
2477.00,99.97
2476.00,99.97
2475.00,99.97
2474.00,99.97
2473.00,99.97
2472.00,99.98
2471.00,99.98
2470.00,99.97
2469.00,99.97
2468.00,99.97
2467.00,99.97
2466.00,99.97
2465.00,99.97
2464.00,99.97
2463.00,99.97
2462.00,99.97
2461.00,99.97
2460.00,99.97
2459.00,99.97
2458.00,99.97
2457.00,99.97
2456.00,99.98
2455.00,99.98
2454.00,99.97
2453.00,99.97
2452.00,99.97
2451.00,99.97
2450.00,99.97
2449.00,99.97
2448.00,99.97
2447.00,99.97
2446.00,99.96
2445.00,99.96
2444.00,99.96
2443.00,99.96
2442.00,99.96
2441.00,99.97
2440.00,99.97
2439.00,99.97
2438.00,99.97
2437.00,99.97
2436.00,99.97
2435.00,99.98
2434.00,99.97
2433.00,99.97
2432.00,99.97
2431.00,99.97
2430.00,99.97
2429.00,99.97
2428.00,99.96
2427.00,99.96
2426.00,99.96
2425.00,99.97
2424.00,99.97
2423.00,99.97
2422.00,99.97
2421.00,99.97
2420.00,99.97
2419.00,99.97
2418.00,99.98
2417.00,99.98
2416.00,99.98
2415.00,99.98
2414.00,99.98
2413.00,99.97
2412.00,99.97
2411.00,99.97
2410.00,99.97
2409.00,99.97
2408.00,99.98
2407.00,99.98
2406.00,99.98
2405.00,99.97
2404.00,99.97
2403.00,99.97
2402.00,99.97
2401.00,99.97
2400.00,99.97
2399.00,99.97
2398.00,99.97
2397.00,99.97
2396.00,99.97
2395.00,99.97
2394.00,99.97
2393.00,99.97
2392.00,99.97
2391.00,99.97
2390.00,99.97
2389.00,99.97
2388.00,99.97
2387.00,99.96
2386.00,99.95
2385.00,99.94
2384.00,99.92
2383.00,99.91
2382.00,99.89
2381.00,99.87
2380.00,99.87
2379.00,99.87
2378.00,99.87
2377.00,99.88
2376.00,99.90
2375.00,99.91
2374.00,99.92
2373.00,99.91
2372.00,99.91
2371.00,99.89
2370.00,99.88
2369.00,99.86
2368.00,99.86
2367.00,99.85
2366.00,99.85
2365.00,99.86
2364.00,99.87
2363.00,99.87
2362.00,99.86
2361.00,99.84
2360.00,99.82
2359.00,99.79
2358.00,99.77
2357.00,99.77
2356.00,99.78
2355.00,99.80
2354.00,99.80
2353.00,99.80
2352.00,99.79
2351.00,99.79
2350.00,99.79
2349.00,99.78
2348.00,99.78
2347.00,99.77
2346.00,99.77
2345.00,99.77
2344.00,99.77
2343.00,99.75
2342.00,99.74
2341.00,99.73
2340.00,99.74
2339.00,99.75
2338.00,99.75
2337.00,99.76
2336.00,99.76
2335.00,99.75
2334.00,99.74
2333.00,99.73
2332.00,99.71
2331.00,99.70
2330.00,99.69
2329.00,99.69
2328.00,99.70
2327.00,99.71
2326.00,99.70
2325.00,99.71
2324.00,99.72
2323.00,99.73
2322.00,99.75
2321.00,99.77
2320.00,99.78
2319.00,99.80
2318.00,99.81
2317.00,99.81
2316.00,99.82
2315.00,99.81
2314.00,99.81
2313.00,99.82
2312.00,99.82
2311.00,99.83
2310.00,99.83
2309.00,99.83
2308.00,99.84
2307.00,99.84
2306.00,99.84
2305.00,99.85
2304.00,99.86
2303.00,99.87
2302.00,99.88
2301.00,99.88
2300.00,99.89
2299.00,99.89
2298.00,99.89
2297.00,99.90
2296.00,99.90
2295.00,99.91
2294.00,99.91
2293.00,99.92
2292.00,99.93
2291.00,99.93
2290.00,99.93
2289.00,99.93
2288.00,99.94
2287.00,99.94
2286.00,99.95
2285.00,99.96
2284.00,99.97
2283.00,99.97
2282.00,99.96
2281.00,99.96
2280.00,99.96
2279.00,99.96
2278.00,99.95
2277.00,99.95
2276.00,99.95
2275.00,99.95
2274.00,99.95
2273.00,99.94
2272.00,99.95
2271.00,99.95
2270.00,99.94
2269.00,99.94
2268.00,99.95
2267.00,99.95
2266.00,99.94
2265.00,99.94
2264.00,99.95
2263.00,99.95
2262.00,99.94
2261.00,99.94
2260.00,99.94
2259.00,99.94
2258.00,99.93
2257.00,99.93
2256.00,99.94
2255.00,99.94
2254.00,99.94
2253.00,99.95
2252.00,99.95
2251.00,99.95
2250.00,99.94
2249.00,99.95
2248.00,99.95
2247.00,99.95
2246.00,99.95
2245.00,99.95
2244.00,99.95
2243.00,99.96
2242.00,99.95
2241.00,99.95
2240.00,99.96
2239.00,99.96
2238.00,99.96
2237.00,99.96
2236.00,99.96
2235.00,99.96
2234.00,99.95
2233.00,99.95
2232.00,99.95
2231.00,99.95
2230.00,99.95
2229.00,99.95
2228.00,99.96
2227.00,99.96
2226.00,99.96
2225.00,99.96
2224.00,99.96
2223.00,99.96
2222.00,99.95
2221.00,99.95
2220.00,99.95
2219.00,99.96
2218.00,99.96
2217.00,99.96
2216.00,99.96
2215.00,99.96
2214.00,99.95
2213.00,99.95
2212.00,99.95
2211.00,99.95
2210.00,99.95
2209.00,99.95
2208.00,99.95
2207.00,99.96
2206.00,99.96
2205.00,99.96
2204.00,99.96
2203.00,99.96
2202.00,99.95
2201.00,99.95
2200.00,99.96
2199.00,99.96
2198.00,99.96
2197.00,99.96
2196.00,99.96
2195.00,99.96
2194.00,99.95
2193.00,99.95
2192.00,99.95
2191.00,99.95
2190.00,99.95
2189.00,99.95
2188.00,99.96
2187.00,99.96
2186.00,99.96
2185.00,99.96
2184.00,99.97
2183.00,99.96
2182.00,99.95
2181.00,99.95
2180.00,99.96
2179.00,99.96
2178.00,99.96
2177.00,99.96
2176.00,99.96
2175.00,99.96
2174.00,99.96
2173.00,99.96
2172.00,99.96
2171.00,99.96
2170.00,99.96
2169.00,99.96
2168.00,99.96
2167.00,99.96
2166.00,99.96
2165.00,99.96
2164.00,99.96
2163.00,99.96
2162.00,99.95
2161.00,99.95
2160.00,99.95
2159.00,99.95
2158.00,99.95
2157.00,99.95
2156.00,99.95
2155.00,99.95
2154.00,99.95
2153.00,99.96
2152.00,99.96
2151.00,99.96
2150.00,99.95
2149.00,99.95
2148.00,99.95
2147.00,99.95
2146.00,99.95
2145.00,99.95
2144.00,99.95
2143.00,99.95
2142.00,99.95
2141.00,99.95
2140.00,99.96
2139.00,99.96
2138.00,99.96
2137.00,99.96
2136.00,99.96
2135.00,99.96
2134.00,99.95
2133.00,99.95
2132.00,99.96
2131.00,99.95
2130.00,99.95
2129.00,99.95
2128.00,99.96
2127.00,99.96
2126.00,99.96
2125.00,99.96
2124.00,99.96
2123.00,99.96
2122.00,99.95
2121.00,99.95
2120.00,99.95
2119.00,99.95
2118.00,99.95
2117.00,99.95
2116.00,99.95
2115.00,99.95
2114.00,99.95
2113.00,99.95
2112.00,99.96
2111.00,99.96
2110.00,99.95
2109.00,99.95
2108.00,99.95
2107.00,99.95
2106.00,99.95
2105.00,99.95
2104.00,99.96
2103.00,99.95
2102.00,99.95
2101.00,99.95
2100.00,99.96
2099.00,99.95
2098.00,99.94
2097.00,99.95
2096.00,99.95
2095.00,99.95
2094.00,99.95
2093.00,99.96
2092.00,99.96
2091.00,99.95
2090.00,99.95
2089.00,99.95
2088.00,99.96
2087.00,99.96
2086.00,99.95
2085.00,99.95
2084.00,99.96
2083.00,99.95
2082.00,99.95
2081.00,99.96
2080.00,99.97
2079.00,99.96
2078.00,99.96
2077.00,99.96
2076.00,99.96
2075.00,99.95
2074.00,99.95
2073.00,99.95
2072.00,99.96
2071.00,99.97
2070.00,99.96
2069.00,99.97
2068.00,99.97
2067.00,99.97
2066.00,99.96
2065.00,99.96
2064.00,99.96
2063.00,99.96
2062.00,99.96
2061.00,99.96
2060.00,99.96
2059.00,99.96
2058.00,99.96
2057.00,99.96
2056.00,99.96
2055.00,99.96
2054.00,99.96
2053.00,99.96
2052.00,99.97
2051.00,99.97
2050.00,99.97
2049.00,99.97
2048.00,99.97
2047.00,99.97
2046.00,99.96
2045.00,99.96
2044.00,99.96
2043.00,99.96
2042.00,99.95
2041.00,99.96
2040.00,99.97
2039.00,99.97
2038.00,99.96
2037.00,99.96
2036.00,99.97
2035.00,99.97
2034.00,99.96
2033.00,99.96
2032.00,99.96
2031.00,99.96
2030.00,99.95
2029.00,99.95
2028.00,99.95
2027.00,99.95
2026.00,99.95
2025.00,99.95
2024.00,99.96
2023.00,99.97
2022.00,99.96
2021.00,99.95
2020.00,99.96
2019.00,99.96
2018.00,99.95
2017.00,99.95
2016.00,99.97
2015.00,99.98
2014.00,99.97
2013.00,99.96
2012.00,99.97
2011.00,99.97
2010.00,99.96
2009.00,99.95
2008.00,99.96
2007.00,99.97
2006.00,99.96
2005.00,99.96
2004.00,99.97
2003.00,99.98
2002.00,99.97
2001.00,99.96
2000.00,99.96
1999.00,99.96
1998.00,99.96
1997.00,99.96
1996.00,99.96
1995.00,99.97
1994.00,99.97
1993.00,99.97
1992.00,99.98
1991.00,99.99
1990.00,99.97
1989.00,99.95
1988.00,99.95
1987.00,99.96
1986.00,99.98
1985.00,99.97
1984.00,99.97
1983.00,99.97
1982.00,99.97
1981.00,99.97
1980.00,99.96
1979.00,99.97
1978.00,99.97
1977.00,99.97
1976.00,99.96
1975.00,99.97
1974.00,99.98
1973.00,99.97
1972.00,99.97
1971.00,99.97
1970.00,99.97
1969.00,99.95
1968.00,99.92
1967.00,99.92
1966.00,99.95
1965.00,99.96
1964.00,99.96
1963.00,99.96
1962.00,99.96
1961.00,99.96
1960.00,99.96
1959.00,99.97
1958.00,99.97
1957.00,99.96
1956.00,99.95
1955.00,99.95
1954.00,99.97
1953.00,99.98
1952.00,99.98
1951.00,99.97
1950.00,99.97
1949.00,99.96
1948.00,99.92
1947.00,99.88
1946.00,99.88
1945.00,99.90
1944.00,99.91
1943.00,99.92
1942.00,99.95
1941.00,99.97
1940.00,99.98
1939.00,99.97
1938.00,99.97
1937.00,99.97
1936.00,99.97
1935.00,99.97
1934.00,99.97
1933.00,99.98
1932.00,99.98
1931.00,99.97
1930.00,99.96
1929.00,99.98
1928.00,99.98
1927.00,99.97
1926.00,99.95
1925.00,99.94
1924.00,99.92
1923.00,99.89
1922.00,99.91
1921.00,99.98
1920.00,100.04
1919.00,100.05
1918.00,100.02
1917.00,100.02
1916.00,100.01
1915.00,99.98
1914.00,99.95
1913.00,99.95
1912.00,99.93
1911.00,99.87
1910.00,99.83
1909.00,99.87
1908.00,99.93
1907.00,99.94
1906.00,99.92
1905.00,99.95
1904.00,99.98
1903.00,99.96
1902.00,99.94
1901.00,99.97
1900.00,100.00
1899.00,99.98
1898.00,99.93
1897.00,99.92
1896.00,99.92
1895.00,99.91
1894.00,99.91
1893.00,99.98
1892.00,100.04
1891.00,100.02
1890.00,99.98
1889.00,100.00
1888.00,100.03
1887.00,99.99
1886.00,99.92
1885.00,99.93
1884.00,99.96
1883.00,99.96
1882.00,99.95
1881.00,99.98
1880.00,100.01
1879.00,99.99
1878.00,99.95
1877.00,99.96
1876.00,99.99
1875.00,99.98
1874.00,99.94
1873.00,99.97
1872.00,100.05
1871.00,100.06
1870.00,99.98
1869.00,99.88
1868.00,99.84
1867.00,99.81
1866.00,99.82
1865.00,99.91
1864.00,99.99
1863.00,99.99
1862.00,99.95
1861.00,99.96
1860.00,100.00
1859.00,99.99
1858.00,99.95
1857.00,99.97
1856.00,100.01
1855.00,99.99
1854.00,99.96
1853.00,99.96
1852.00,99.98
1851.00,99.97
1850.00,99.94
1849.00,99.93
1848.00,99.91
1847.00,99.86
1846.00,99.81
1845.00,99.81
1844.00,99.83
1843.00,99.85
1842.00,99.91
1841.00,99.95
1840.00,99.94
1839.00,99.89
1838.00,99.85
1837.00,99.87
1836.00,99.93
1835.00,99.97
1834.00,100.02
1833.00,100.06
1832.00,100.08
1831.00,100.03
1830.00,99.96
1829.00,99.94
1828.00,100.00
1827.00,100.03
1826.00,100.00
1825.00,99.97
1824.00,100.01
1823.00,100.04
1822.00,100.00
1821.00,99.97
1820.00,100.01
1819.00,100.04
1818.00,100.00
1817.00,99.97
1816.00,100.02
1815.00,100.03
1814.00,99.93
1813.00,99.82
1812.00,99.79
1811.00,99.79
1810.00,99.77
1809.00,99.83
1808.00,99.94
1807.00,99.97
1806.00,99.93
1805.00,99.96
1804.00,100.08
1803.00,100.11
1802.00,99.99
1801.00,99.86
1800.00,99.83
1799.00,99.80
1798.00,99.74
1797.00,99.74
1796.00,99.81
1795.00,99.89
1794.00,99.94
1793.00,100.03
1792.00,100.13
1791.00,100.11
1790.00,100.01
1789.00,99.96
1788.00,99.98
1787.00,99.97
1786.00,99.92
1785.00,99.92
1784.00,99.92
1783.00,99.85
1782.00,99.70
1781.00,99.60
1780.00,99.65
1779.00,99.77
1778.00,99.83
1777.00,99.81
1776.00,99.79
1775.00,99.84
1774.00,99.91
1773.00,99.89
1772.00,99.86
1771.00,99.94
1770.00,100.01
1769.00,100.00
1768.00,99.96
1767.00,99.96
1766.00,99.97
1765.00,99.98
1764.00,100.08
1763.00,100.23
1762.00,100.27
1761.00,100.17
1760.00,100.09
1759.00,100.10
1758.00,100.10
1757.00,100.01
1756.00,99.91
1755.00,99.85
1754.00,99.72
1753.00,99.50
1752.00,99.35
1751.00,99.32
1750.00,99.27
1749.00,99.17
1748.00,99.15
1747.00,99.30
1746.00,99.45
1745.00,99.47
1744.00,99.51
1743.00,99.66
1742.00,99.81
1741.00,99.85
1740.00,99.82
1739.00,99.82
1738.00,99.78
1737.00,99.59
1736.00,99.37
1735.00,99.30
1734.00,99.27
1733.00,99.23
1732.00,99.29
1731.00,99.41
1730.00,99.55
1729.00,99.69
1728.00,99.80
1727.00,99.86
1726.00,99.84
1725.00,99.79
1724.00,99.79
1723.00,99.80
1722.00,99.77
1721.00,99.71
1720.00,99.69
1719.00,99.70
1718.00,99.73
1717.00,99.87
1716.00,100.00
1715.00,99.90
1714.00,99.71
1713.00,99.68
1712.00,99.74
1711.00,99.69
1710.00,99.57
1709.00,99.53
1708.00,99.60
1707.00,99.63
1706.00,99.68
1705.00,99.88
1704.00,99.95
1703.00,99.56
1702.00,98.96
1701.00,98.73
1700.00,98.90
1699.00,99.07
1698.00,99.09
1697.00,99.11
1696.00,99.21
1695.00,99.29
1694.00,99.43
1693.00,99.61
1692.00,99.68
1691.00,99.61
1690.00,99.54
1689.00,99.53
1688.00,99.54
1687.00,99.54
1686.00,99.66
1685.00,99.84
1684.00,99.83
1683.00,99.78
1682.00,99.81
1681.00,99.78
1680.00,99.69
1679.00,99.67
1678.00,99.70
1677.00,99.65
1676.00,99.54
1675.00,99.56
1674.00,99.68
1673.00,99.69
1672.00,99.54
1671.00,99.39
1670.00,99.39
1669.00,99.46
1668.00,99.55
1667.00,99.71
1666.00,99.86
1665.00,99.89
1664.00,99.78
1663.00,99.68
1662.00,99.73
1661.00,99.78
1660.00,99.75
1659.00,99.77
1658.00,99.88
1657.00,99.88
1656.00,99.72
1655.00,99.74
1654.00,99.96
1653.00,99.75
1652.00,99.35
1651.00,99.42
1650.00,99.65
1649.00,99.63
1648.00,99.55
1647.00,99.64
1646.00,99.71
1645.00,99.68
1644.00,99.64
1643.00,99.59
1642.00,99.54
1641.00,99.48
1640.00,99.40
1639.00,99.28
1638.00,99.15
1637.00,99.12
1636.00,99.18
1635.00,99.30
1634.00,99.46
1633.00,99.67
1632.00,99.75
1631.00,99.66
1630.00,99.54
1629.00,99.47
1628.00,99.48
1627.00,99.58
1626.00,99.73
1625.00,99.78
1624.00,99.67
1623.00,99.58
1622.00,99.69
1621.00,99.84
1620.00,99.80
1619.00,99.65
1618.00,99.61
1617.00,99.62
1616.00,99.56
1615.00,99.60
1614.00,99.80
1613.00,99.88
1612.00,99.73
1611.00,99.52
1610.00,99.47
1609.00,99.52
1608.00,99.52
1607.00,99.56
1606.00,99.69
1605.00,99.74
1604.00,99.65
1603.00,99.60
1602.00,99.70
1601.00,99.80
1600.00,99.80
1599.00,99.79
1598.00,99.81
1597.00,99.79
1596.00,99.69
1595.00,99.63
1594.00,99.71
1593.00,99.82
1592.00,99.82
1591.00,99.79
1590.00,99.85
1589.00,99.93
1588.00,99.91
1587.00,99.87
1586.00,99.92
1585.00,99.96
1584.00,99.89
1583.00,99.85
1582.00,99.95
1581.00,100.05
1580.00,99.98
1579.00,99.82
1578.00,99.75
1577.00,99.75
1576.00,99.67
1575.00,99.71
1574.00,99.96
1573.00,100.13
1572.00,100.06
1571.00,99.91
1570.00,99.87
1569.00,99.83
1568.00,99.70
1567.00,99.63
1566.00,99.65
1565.00,99.68
1564.00,99.69
1563.00,99.75
1562.00,99.85
1561.00,100.11
1560.00,100.33
1559.00,100.25
1558.00,100.09
1557.00,100.11
1556.00,100.22
1555.00,100.29
1554.00,100.24
1553.00,100.07
1552.00,99.90
1551.00,99.81
1550.00,99.81
1549.00,99.86
1548.00,99.90
1547.00,99.97
1546.00,100.06
1545.00,100.09
1544.00,100.03
1543.00,100.01
1542.00,100.14
1541.00,100.32
1540.00,100.18
1539.00,99.74
1538.00,99.57
1537.00,99.79
1536.00,99.99
1535.00,99.99
1534.00,99.92
1533.00,99.88
1532.00,99.92
1531.00,99.89
1530.00,99.80
1529.00,99.81
1528.00,99.95
1527.00,100.11
1526.00,100.17
1525.00,100.16
1524.00,100.20
1523.00,100.36
1522.00,100.57
1521.00,100.63
1520.00,100.49
1519.00,100.25
1518.00,99.98
1517.00,99.83
1516.00,99.92
1515.00,100.08
1514.00,100.12
1513.00,100.11
1512.00,100.17
1511.00,100.16
1510.00,99.94
1509.00,99.67
1508.00,99.71
1507.00,99.92
1506.00,99.84
1505.00,99.62
1504.00,99.69
1503.00,99.86
1502.00,99.89
1501.00,99.85
1500.00,99.91
1499.00,100.03
1498.00,100.02
1497.00,99.96
1496.00,99.96
1495.00,99.96
1494.00,99.91
1493.00,99.88
1492.00,99.91
1491.00,99.93
1490.00,99.90
1489.00,99.95
1488.00,100.05
1487.00,100.04
1486.00,99.99
1485.00,100.00
1484.00,100.00
1483.00,99.92
1482.00,99.81
1481.00,99.83
1480.00,99.93
1479.00,99.97
1478.00,99.92
1477.00,99.95
1476.00,100.07
1475.00,100.19
1474.00,100.25
1473.00,100.22
1472.00,100.13
1471.00,100.02
1470.00,99.95
1469.00,99.97
1468.00,100.04
1467.00,100.06
1466.00,100.05
1465.00,100.01
1464.00,99.99
1463.00,99.99
1462.00,99.94
1461.00,99.82
1460.00,99.71
1459.00,99.69
1458.00,99.68
1457.00,99.54
1456.00,99.38
1455.00,99.51
1454.00,99.74
1453.00,99.84
1452.00,99.88
1451.00,99.94
1450.00,99.96
1449.00,99.95
1448.00,99.97
1447.00,100.04
1446.00,100.07
1445.00,99.99
1444.00,99.94
1443.00,99.99
1442.00,100.02
1441.00,99.96
1440.00,99.90
1439.00,99.90
1438.00,99.87
1437.00,99.77
1436.00,99.72
1435.00,99.85
1434.00,99.95
1433.00,99.91
1432.00,99.86
1431.00,99.91
1430.00,99.95
1429.00,99.93
1428.00,99.92
1427.00,99.94
1426.00,99.89
1425.00,99.67
1424.00,99.56
1423.00,99.68
1422.00,99.82
1421.00,99.78
1420.00,99.72
1419.00,99.80
1418.00,99.87
1417.00,99.86
1416.00,99.87
1415.00,99.94
1414.00,99.98
1413.00,99.90
1412.00,99.84
1411.00,99.91
1410.00,99.99
1409.00,99.96
1408.00,99.92
1407.00,99.94
1406.00,99.96
1405.00,99.91
1404.00,99.87
1403.00,99.94
1402.00,100.00
1401.00,99.97
1400.00,99.91
1399.00,99.94
1398.00,100.01
1397.00,100.07
1396.00,100.15
1395.00,100.28
1394.00,100.31
1393.00,100.13
1392.00,99.93
1391.00,99.91
1390.00,100.04
1389.00,100.16
1388.00,100.19
1387.00,100.15
1386.00,100.06
1385.00,99.96
1384.00,99.88
1383.00,99.87
1382.00,99.88
1381.00,99.87
1380.00,99.85
1379.00,99.85
1378.00,99.85
1377.00,99.81
1376.00,99.75
1375.00,99.77
1374.00,99.88
1373.00,99.97
1372.00,99.95
1371.00,99.89
1370.00,99.86
1369.00,99.84
1368.00,99.84
1367.00,99.87
1366.00,99.95
1365.00,100.01
1364.00,100.06
1363.00,100.11
1362.00,100.16
1361.00,100.15
1360.00,100.07
1359.00,99.97
1358.00,99.91
1357.00,99.88
1356.00,99.85
1355.00,99.85
1354.00,99.87
1353.00,99.89
1352.00,99.88
1351.00,99.85
1350.00,99.84
1349.00,99.85
1348.00,99.85
1347.00,99.86
1346.00,99.88
1345.00,99.89
1344.00,99.88
1343.00,99.87
1342.00,99.88
1341.00,99.88
1340.00,99.90
1339.00,99.96
1338.00,100.02
1337.00,100.02
1336.00,99.98
1335.00,99.94
1334.00,99.93
1333.00,99.91
1332.00,99.89
1331.00,99.89
1330.00,99.90
1329.00,99.91
1328.00,99.89
1327.00,99.88
1326.00,99.89
1325.00,99.88
1324.00,99.86
1323.00,99.86
1322.00,99.86
1321.00,99.83
1320.00,99.79
1319.00,99.79
1318.00,99.84
1317.00,99.88
1316.00,99.90
1315.00,99.90
1314.00,99.91
1313.00,99.90
1312.00,99.88
1311.00,99.87
1310.00,99.88
1309.00,99.87
1308.00,99.85
1307.00,99.85
1306.00,99.87
1305.00,99.87
1304.00,99.86
1303.00,99.86
1302.00,99.87
1301.00,99.87
1300.00,99.85
1299.00,99.86
1298.00,99.87
1297.00,99.87
1296.00,99.85
1295.00,99.85
1294.00,99.86
1293.00,99.86
1292.00,99.85
1291.00,99.86
1290.00,99.88
1289.00,99.88
1288.00,99.87
1287.00,99.86
1286.00,99.87
1285.00,99.86
1284.00,99.85
1283.00,99.85
1282.00,99.87
1281.00,99.87
1280.00,99.85
1279.00,99.85
1278.00,99.87
1277.00,99.87
1276.00,99.85
1275.00,99.85
1274.00,99.86
1273.00,99.84
1272.00,99.82
1271.00,99.82
1270.00,99.84
1269.00,99.84
1268.00,99.83
1267.00,99.84
1266.00,99.87
1265.00,99.87
1264.00,99.86
1263.00,99.86
1262.00,99.87
1261.00,99.86
1260.00,99.84
1259.00,99.85
1258.00,99.88
1257.00,99.87
1256.00,99.85
1255.00,99.85
1254.00,99.86
1253.00,99.86
1252.00,99.85
1251.00,99.85
1250.00,99.86
1249.00,99.85
1248.00,99.83
1247.00,99.83
1246.00,99.85
1245.00,99.84
1244.00,99.83
1243.00,99.84
1242.00,99.86
1241.00,99.85
1240.00,99.84
1239.00,99.84
1238.00,99.86
1237.00,99.86
1236.00,99.85
1235.00,99.85
1234.00,99.87
1233.00,99.87
1232.00,99.85
1231.00,99.85
1230.00,99.86
1229.00,99.85
1228.00,99.82
1227.00,99.82
1226.00,99.84
1225.00,99.84
1224.00,99.82
1223.00,99.82
1222.00,99.84
1221.00,99.83
1220.00,99.81
1219.00,99.81
1218.00,99.83
1217.00,99.83
1216.00,99.81
1215.00,99.82
1214.00,99.83
1213.00,99.82
1212.00,99.80
1211.00,99.80
1210.00,99.81
1209.00,99.80
1208.00,99.78
1207.00,99.79
1206.00,99.81
1205.00,99.82
1204.00,99.80
1203.00,99.80
1202.00,99.81
1201.00,99.80
1200.00,99.78
1199.00,99.78
1198.00,99.80
1197.00,99.80
1196.00,99.79
1195.00,99.79
1194.00,99.81
1193.00,99.80
1192.00,99.77
1191.00,99.77
1190.00,99.79
1189.00,99.79
1188.00,99.77
1187.00,99.78
1186.00,99.79
1185.00,99.79
1184.00,99.77
1183.00,99.77
1182.00,99.80
1181.00,99.80
1180.00,99.80
1179.00,99.81
1178.00,99.82
1177.00,99.80
1176.00,99.77
1175.00,99.77
1174.00,99.78
1173.00,99.78
1172.00,99.78
1171.00,99.79
1170.00,99.82
1169.00,99.83
1168.00,99.82
1167.00,99.84
1166.00,99.86
1165.00,99.85
1164.00,99.84
1163.00,99.86
1162.00,99.89
1161.00,99.90
1160.00,99.88
1159.00,99.88
1158.00,99.89
1157.00,99.88
1156.00,99.86
1155.00,99.87
1154.00,99.89
1153.00,99.88
1152.00,99.84
1151.00,99.83
1150.00,99.84
1149.00,99.84
1148.00,99.83
1147.00,99.85
1146.00,99.86
1145.00,99.85
1144.00,99.81
1143.00,99.80
1142.00,99.81
1141.00,99.79
1140.00,99.76
1139.00,99.76
1138.00,99.78
1137.00,99.78
1136.00,99.77
1135.00,99.79
1134.00,99.81
1133.00,99.80
1132.00,99.78
1131.00,99.80
1130.00,99.83
1129.00,99.83
1128.00,99.82
1127.00,99.84
1126.00,99.86
1125.00,99.85
1124.00,99.82
1123.00,99.83
1122.00,99.86
1121.00,99.86
1120.00,99.84
1119.00,99.85
1118.00,99.88
1117.00,99.89
1116.00,99.87
1115.00,99.88
1114.00,99.90
1113.00,99.89
1112.00,99.86
1111.00,99.86
1110.00,99.88
1109.00,99.87
1108.00,99.84
1107.00,99.83
1106.00,99.85
1105.00,99.85
1104.00,99.84
1103.00,99.86
1102.00,99.90
1101.00,99.89
1100.00,99.87
1099.00,99.89
1098.00,99.94
1097.00,99.93
1096.00,99.89
1095.00,99.88
1094.00,99.89
1093.00,99.86
1092.00,99.81
1091.00,99.81
1090.00,99.83
1089.00,99.82
1088.00,99.80
1087.00,99.82
1086.00,99.85
1085.00,99.85
1084.00,99.82
1083.00,99.82
1082.00,99.85
1081.00,99.84
1080.00,99.81
1079.00,99.81
1078.00,99.83
1077.00,99.80
1076.00,99.76
1075.00,99.77
1074.00,99.81
1073.00,99.82
1072.00,99.81
1071.00,99.84
1070.00,99.91
1069.00,99.93
1068.00,99.92
1067.00,99.95
1066.00,99.99
1065.00,99.98
1064.00,99.93
1063.00,99.91
1062.00,99.93
1061.00,99.93
1060.00,99.91
1059.00,99.92
1058.00,99.95
1057.00,99.95
1056.00,99.94
1055.00,99.98
1054.00,100.04
1053.00,100.02
1052.00,99.95
1051.00,99.92
1050.00,99.92
1049.00,99.90
1048.00,99.87
1047.00,99.90
1046.00,99.96
1045.00,99.95
1044.00,99.89
1043.00,99.87
1042.00,99.87
1041.00,99.83
1040.00,99.79
1039.00,99.83
1038.00,99.90
1037.00,99.89
1036.00,99.83
1035.00,99.82
1034.00,99.85
1033.00,99.86
1032.00,99.86
1031.00,99.92
1030.00,100.00
1029.00,100.00
1028.00,99.95
1027.00,99.94
1026.00,99.97
1025.00,99.95
1024.00,99.92
1023.00,99.96
1022.00,100.02
1021.00,100.01
1020.00,99.95
1019.00,99.93
1018.00,99.95
1017.00,99.90
1016.00,99.83
1015.00,99.85
1014.00,99.89
1013.00,99.85
1012.00,99.76
1011.00,99.76
1010.00,99.81
1009.00,99.80
1008.00,99.75
1007.00,99.78
1006.00,99.86
1005.00,99.88
1004.00,99.88
1003.00,99.95
1002.00,100.05
1001.00,100.03
1000.00,99.96
