Created as New Dataset,Sample 001 By Administrator Date Wednesday, October 15 2025
cm-1,%T
4000.00,99.58
3999.00,99.58
3998.00,99.60
3997.00,99.61
3996.00,99.61
3995.00,99.61
3994.00,99.61
3993.00,99.62
3992.00,99.63
3991.00,99.61
3990.00,99.58
3989.00,99.57
3988.00,99.57
3987.00,99.57
3986.00,99.58
3985.00,99.59
3984.00,99.60
3983.00,99.60
3982.00,99.59
3981.00,99.58
3980.00,99.58
3979.00,99.59
3978.00,99.60
3977.00,99.62
3976.00,99.63
3975.00,99.64
3974.00,99.65
3973.00,99.66
3972.00,99.65
3971.00,99.65
3970.00,99.64
3969.00,99.63
3968.00,99.61
3967.00,99.60
3966.00,99.60
3965.00,99.61
3964.00,99.61
3963.00,99.62
3962.00,99.62
3961.00,99.63
3960.00,99.65
3959.00,99.66
3958.00,99.65
3957.00,99.63
3956.00,99.63
3955.00,99.65
3954.00,99.70
3953.00,99.74
3952.00,99.77
3951.00,99.76
3950.00,99.72
3949.00,99.65
3948.00,99.60
3947.00,99.62
3946.00,99.72
3945.00,99.85
3944.00,99.89
3943.00,99.83
3942.00,99.76
3941.00,99.74
3940.00,99.74
3939.00,99.70
3938.00,99.61
3937.00,99.55
3936.00,99.55
3935.00,99.58
3934.00,99.58
3933.00,99.58
3932.00,99.64
3931.00,99.76
3930.00,99.84
3929.00,99.88
3928.00,99.92
3927.00,99.97
3926.00,99.97
3925.00,99.88
3924.00,99.78
3923.00,99.76
3922.00,99.76
3921.00,99.68
3920.00,99.56
3919.00,99.52
3918.00,99.56
3917.00,99.59
3916.00,99.59
3915.00,99.63
3914.00,99.68
3913.00,99.67
3912.00,99.59
3911.00,99.54
3910.00,99.55
3909.00,99.60
3908.00,99.69
3907.00,99.81
3906.00,99.86
3905.00,99.71
3904.00,99.44
3903.00,99.32
3902.00,99.48
3901.00,99.74
3900.00,99.86
3899.00,99.83
3898.00,99.75
3897.00,99.70
3896.00,99.64
3895.00,99.62
3894.00,99.67
3893.00,99.78
3892.00,99.76
3891.00,99.55
3890.00,99.31
3889.00,99.28
3888.00,99.39
3887.00,99.34
3886.00,99.16
3885.00,99.19
3884.00,99.53
3883.00,100.00
3882.00,100.21
3881.00,100.06
3880.00,99.79
3879.00,99.64
3878.00,99.70
3877.00,99.84
3876.00,99.84
3875.00,99.60
3874.00,99.38
3873.00,99.42
3872.00,99.61
3871.00,99.54
3870.00,99.16
3869.00,98.98
3868.00,99.25
3867.00,99.68
3866.00,99.73
3865.00,99.48
3864.00,99.42
3863.00,99.58
3862.00,99.63
3861.00,99.47
3860.00,99.24
3859.00,99.05
3858.00,98.98
3857.00,99.16
3856.00,99.50
3855.00,99.47
3854.00,99.01
3853.00,98.64
3852.00,98.63
3851.00,98.91
3850.00,99.18
3849.00,99.25
3848.00,99.26
3847.00,99.35
3846.00,99.43
3845.00,99.47
3844.00,99.44
3843.00,99.35
3842.00,99.25
3841.00,99.22
3840.00,99.25
3839.00,99.25
3838.00,99.26
3837.00,99.29
3836.00,99.37
3835.00,99.50
3834.00,99.62
3833.00,99.63
3832.00,99.52
3831.00,99.42
3830.00,99.44
3829.00,99.58
3828.00,99.65
3827.00,99.52
3826.00,99.27
3825.00,99.21
3824.00,99.40
3823.00,99.51
3822.00,99.29
3821.00,99.02
3820.00,98.96
3819.00,99.16
3818.00,99.40
3817.00,99.25
3816.00,98.91
3815.00,98.83
3814.00,99.10
3813.00,99.37
3812.00,99.34
3811.00,99.09
3810.00,99.01
3809.00,99.13
3808.00,99.11
3807.00,98.83
3806.00,98.57
3805.00,98.70
3804.00,99.09
3803.00,99.26
3802.00,99.13
3801.00,99.10
3800.00,99.31
3799.00,99.62
3798.00,99.77
3797.00,99.64
3796.00,99.50
3795.00,99.52
3794.00,99.63
3793.00,99.66
3792.00,99.58
3791.00,99.52
3790.00,99.54
3789.00,99.59
3788.00,99.63
3787.00,99.66
3786.00,99.67
3785.00,99.65
3784.00,99.61
3783.00,99.66
3782.00,99.76
3781.00,99.81
3780.00,99.73
3779.00,99.64
3778.00,99.63
3777.00,99.69
3776.00,99.68
3775.00,99.52
3774.00,99.36
3773.00,99.39
3772.00,99.48
3771.00,99.42
3770.00,99.31
3769.00,99.36
3768.00,99.56
3767.00,99.66
3766.00,99.56
3765.00,99.39
3764.00,99.36
3763.00,99.49
3762.00,99.57
3761.00,99.50
3760.00,99.43
3759.00,99.47
3758.00,99.45
3757.00,99.23
3756.00,98.99
3755.00,98.80
3754.00,98.49
3753.00,98.00
3752.00,97.69
3751.00,97.79
3750.00,97.91
3749.00,97.82
3748.00,97.98
3747.00,98.62
3746.00,99.15
3745.00,99.06
3744.00,98.74
3743.00,98.62
3742.00,98.73
3741.00,98.75
3740.00,98.54
3739.00,98.38
3738.00,98.47
3737.00,98.58
3736.00,98.69
3735.00,98.97
3734.00,99.31
3733.00,99.41
3732.00,99.23
3731.00,99.05
3730.00,99.06
3729.00,99.18
3728.00,99.23
3727.00,99.18
3726.00,99.24
3725.00,99.46
3724.00,99.65
3723.00,99.70
3722.00,99.65
3721.00,99.61
3720.00,99.61
3719.00,99.58
3718.00,99.44
3717.00,99.23
3716.00,99.08
3715.00,99.03
3714.00,98.94
3713.00,98.83
3712.00,98.91
3711.00,99.17
3710.00,99.39
3709.00,99.49
3708.00,99.48
3707.00,99.42
3706.00,99.38
3705.00,99.43
3704.00,99.55
3703.00,99.63
3702.00,99.65
3701.00,99.63
3700.00,99.63
3699.00,99.65
3698.00,99.60
3697.00,99.43
3696.00,99.32
3695.00,99.36
3694.00,99.38
3693.00,99.27
3692.00,99.14
3691.00,99.13
3690.00,99.15
3689.00,99.07
3688.00,98.96
3687.00,98.97
3686.00,99.11
3685.00,99.24
3684.00,99.23
3683.00,99.18
3682.00,99.20
3681.00,99.15
3680.00,98.96
3679.00,98.81
3678.00,98.86
3677.00,98.85
3676.00,98.65
3675.00,98.56
3674.00,98.71
3673.00,99.06
3672.00,99.22
3671.00,98.99
3670.00,98.85
3669.00,99.04
3668.00,99.32
3667.00,99.48
3666.00,99.48
3665.00,99.38
3664.00,99.33
3663.00,99.35
3662.00,99.36
3661.00,99.28
3660.00,99.19
3659.00,99.18
3658.00,99.20
3657.00,99.11
3656.00,98.95
3655.00,98.90
3654.00,99.04
3653.00,99.12
3652.00,98.88
3651.00,98.53
3650.00,98.61
3649.00,99.03
3648.00,99.34
3647.00,99.45
3646.00,99.52
3645.00,99.57
3644.00,99.54
3643.00,99.45
3642.00,99.40
3641.00,99.43
3640.00,99.46
3639.00,99.41
3638.00,99.33
3637.00,99.31
3636.00,99.30
3635.00,99.19
3634.00,98.96
3633.00,98.81
3632.00,98.85
3631.00,98.90
3630.00,98.73
3629.00,98.61
3628.00,98.70
3627.00,98.88
3626.00,99.04
3625.00,99.05
3624.00,98.99
3623.00,99.03
3622.00,99.24
3621.00,99.44
3620.00,99.53
3619.00,99.53
3618.00,99.49
3617.00,99.45
3616.00,99.42
3615.00,99.32
3614.00,99.13
3613.00,98.94
3612.00,98.88
3611.00,98.91
3610.00,98.91
3609.00,98.89
3608.00,98.96
3607.00,99.13
3606.00,99.28
3605.00,99.34
3604.00,99.33
3603.00,99.31
3602.00,99.31
3601.00,99.28
3600.00,99.30
3599.00,99.35
3598.00,99.40
3597.00,99.40
3596.00,99.40
3595.00,99.38
3594.00,99.31
3593.00,99.19
3592.00,99.10
3591.00,99.08
3590.00,99.10
3589.00,99.12
3588.00,99.21
3587.00,99.37
3586.00,99.47
3585.00,99.47
3584.00,99.42
3583.00,99.36
3582.00,99.33
3581.00,99.33
3580.00,99.35
3579.00,99.39
3578.00,99.39
3577.00,99.37
3576.00,99.34
3575.00,99.31
3574.00,99.28
3573.00,99.23
3572.00,99.19
3571.00,99.20
3570.00,99.22
3569.00,99.22
3568.00,99.25
3567.00,99.38
3566.00,99.55
3565.00,99.63
3564.00,99.60
3563.00,99.51
3562.00,99.41
3561.00,99.35
3560.00,99.32
3559.00,99.31
3558.00,99.29
3557.00,99.28
3556.00,99.28
3555.00,99.31
3554.00,99.34
3553.00,99.34
3552.00,99.31
3551.00,99.29
3550.00,99.28
3549.00,99.25
3548.00,99.22
3547.00,99.23
3546.00,99.29
3545.00,99.35
3544.00,99.36
3543.00,99.34
3542.00,99.30
3541.00,99.25
3540.00,99.24
3539.00,99.27
3538.00,99.29
3537.00,99.28
3536.00,99.26
3535.00,99.25
3534.00,99.25
3533.00,99.24
3532.00,99.23
3531.00,99.25
3530.00,99.29
3529.00,99.29
3528.00,99.26
3527.00,99.24
3526.00,99.25
3525.00,99.26
3524.00,99.26
3523.00,99.27
3522.00,99.28
3521.00,99.27
3520.00,99.25
3519.00,99.22
3518.00,99.19
3517.00,99.18
3516.00,99.17
3515.00,99.17
3514.00,99.17
3513.00,99.18
3512.00,99.20
3511.00,99.21
3510.00,99.21
3509.00,99.20
3508.00,99.19
3507.00,99.20
3506.00,99.21
3505.00,99.20
3504.00,99.19
3503.00,99.19
3502.00,99.21
3501.00,99.20
3500.00,99.18
3499.00,99.15
3498.00,99.14
3497.00,99.12
3496.00,99.11
3495.00,99.12
3494.00,99.12
3493.00,99.12
3492.00,99.11
3491.00,99.12
3490.00,99.12
3489.00,99.11
3488.00,99.10
3487.00,99.10
3486.00,99.12
3485.00,99.13
3484.00,99.13
3483.00,99.13
3482.00,99.13
3481.00,99.12
3480.00,99.11
3479.00,99.11
3478.00,99.11
3477.00,99.11
3476.00,99.10
3475.00,99.10
3474.00,99.10
3473.00,99.09
3472.00,99.07
3471.00,99.06
3470.00,99.05
3469.00,99.04
3468.00,99.04
3467.00,99.05
3466.00,99.07
3465.00,99.08
3464.00,99.10
3463.00,99.11
3462.00,99.10
3461.00,99.08
3460.00,99.07
3459.00,99.06
3458.00,99.06
3457.00,99.05
3456.00,99.04
3455.00,99.04
3454.00,99.04
3453.00,99.03
3452.00,99.03
3451.00,99.04
3450.00,99.07
3449.00,99.09
3448.00,99.10
3447.00,99.10
3446.00,99.10
3445.00,99.10
3444.00,99.09
3443.00,99.07
3442.00,99.06
3441.00,99.05
3440.00,99.05
3439.00,99.04
3438.00,99.02
3437.00,99.01
3436.00,99.00
3435.00,99.01
3434.00,99.02
3433.00,99.02
3432.00,99.01
3431.00,99.00
3430.00,98.99
3429.00,98.99
3428.00,98.99
3427.00,98.99
3426.00,99.00
3425.00,99.01
3424.00,99.03
3423.00,99.04
3422.00,99.06
3421.00,99.07
3420.00,99.06
3419.00,99.04
3418.00,99.02
3417.00,99.01
3416.00,98.99
3415.00,98.99
3414.00,98.99
3413.00,99.00
3412.00,98.99
3411.00,98.99
3410.00,99.00
3409.00,99.00
3408.00,99.00
3407.00,99.00
3406.00,98.99
3405.00,98.99
3404.00,98.97
3403.00,98.96
3402.00,98.96
3401.00,98.97
3400.00,98.98
3399.00,99.00
3398.00,99.01
3397.00,99.01
3396.00,99.02
3395.00,99.03
3394.00,99.03
3393.00,99.02
3392.00,99.00
3391.00,99.00
3390.00,99.00
3389.00,99.00
3388.00,98.99
3387.00,99.00
3386.00,99.02
3385.00,99.02
3384.00,99.02
3383.00,99.02
3382.00,99.02
3381.00,99.01
3380.00,99.00
3379.00,99.00
3378.00,99.01
3377.00,99.01
3376.00,99.01
3375.00,99.01
3374.00,99.01
3373.00,99.01
3372.00,99.00
3371.00,99.00
3370.00,98.99
3369.00,98.99
3368.00,99.00
3367.00,99.01
3366.00,99.02
3365.00,99.03
3364.00,99.04
3363.00,99.04
3362.00,99.04
3361.00,99.04
3360.00,99.03
3359.00,99.04
3358.00,99.04
3357.00,99.04
3356.00,99.04
3355.00,99.04
3354.00,99.04
3353.00,99.04
3352.00,99.03
3351.00,99.03
3350.00,99.03
3349.00,99.04
3348.00,99.04
3347.00,99.05
3346.00,99.05
3345.00,99.05
3344.00,99.05
3343.00,99.05
3342.00,99.05
3341.00,99.05
3340.00,99.05
3339.00,99.06
3338.00,99.06
3337.00,99.06
3336.00,99.07
3335.00,99.07
3334.00,99.08
3333.00,99.07
3332.00,99.07
3331.00,99.07
3330.00,99.07
3329.00,99.07
3328.00,99.06
3327.00,99.06
3326.00,99.05
3325.00,99.05
3324.00,99.05
3323.00,99.06
3322.00,99.07
3321.00,99.08
3320.00,99.09
3319.00,99.09
3318.00,99.10
3317.00,99.09
3316.00,99.09
3315.00,99.09
3314.00,99.09
3313.00,99.08
3312.00,99.08
3311.00,99.09
3310.00,99.09
3309.00,99.08
3308.00,99.07
3307.00,99.08
3306.00,99.08
3305.00,99.08
3304.00,99.08
3303.00,99.08
3302.00,99.09
3301.00,99.09
3300.00,99.09
3299.00,99.09
3298.00,99.10
3297.00,99.09
3296.00,99.09
3295.00,99.09
3294.00,99.09
3293.00,99.08
3292.00,99.08
3291.00,99.09
3290.00,99.10
3289.00,99.11
3288.00,99.12
3287.00,99.12
3286.00,99.12
3285.00,99.11
3284.00,99.11
3283.00,99.12
3282.00,99.12
3281.00,99.12
3280.00,99.12
3279.00,99.12
3278.00,99.12
3277.00,99.11
3276.00,99.10
3275.00,99.10
3274.00,99.11
3273.00,99.11
3272.00,99.11
3271.00,99.12
3270.00,99.12
3269.00,99.13
3268.00,99.13
3267.00,99.14
3266.00,99.14
3265.00,99.13
3264.00,99.12
3263.00,99.12
3262.00,99.12
3261.00,99.13
3260.00,99.13
3259.00,99.14
3258.00,99.14
3257.00,99.13
3256.00,99.12
3255.00,99.12
3254.00,99.13
3253.00,99.14
3252.00,99.15
3251.00,99.15
3250.00,99.14
3249.00,99.13
3248.00,99.13
3247.00,99.14
3246.00,99.14
3245.00,99.15
3244.00,99.15
3243.00,99.16
3242.00,99.16
3241.00,99.15
3240.00,99.15
3239.00,99.16
3238.00,99.17
3237.00,99.16
3236.00,99.16
3235.00,99.16
3234.00,99.16
3233.00,99.16
3232.00,99.16
3231.00,99.16
3230.00,99.16
3229.00,99.16
3228.00,99.16
3227.00,99.16
3226.00,99.17
3225.00,99.17
3224.00,99.17
3223.00,99.17
3222.00,99.17
3221.00,99.17
3220.00,99.17
3219.00,99.18
3218.00,99.18
3217.00,99.18
3216.00,99.17
3215.00,99.18
3214.00,99.19
3213.00,99.19
3212.00,99.20
3211.00,99.20
3210.00,99.20
3209.00,99.21
3208.00,99.21
3207.00,99.21
3206.00,99.21
3205.00,99.21
3204.00,99.21
3203.00,99.21
3202.00,99.21
3201.00,99.21
3200.00,99.21
3199.00,99.21
3198.00,99.22
3197.00,99.22
3196.00,99.23
3195.00,99.23
3194.00,99.23
3193.00,99.23
3192.00,99.23
3191.00,99.24
3190.00,99.24
3189.00,99.24
3188.00,99.24
3187.00,99.24
3186.00,99.24
3185.00,99.24
3184.00,99.25
3183.00,99.26
3182.00,99.26
3181.00,99.25
3180.00,99.24
3179.00,99.24
3178.00,99.24
3177.00,99.25
3176.00,99.27
3175.00,99.28
3174.00,99.29
3173.00,99.29
3172.00,99.29
3171.00,99.30
3170.00,99.29
3169.00,99.29
3168.00,99.29
3167.00,99.28
3166.00,99.28
3165.00,99.28
3164.00,99.28
3163.00,99.29
3162.00,99.30
3161.00,99.30
3160.00,99.31
3159.00,99.31
3158.00,99.31
3157.00,99.30
3156.00,99.30
3155.00,99.30
3154.00,99.30
3153.00,99.29
3152.00,99.30
3151.00,99.30
3150.00,99.31
3149.00,99.31
3148.00,99.31
3147.00,99.32
3146.00,99.32
3145.00,99.33
3144.00,99.33
3143.00,99.33
3142.00,99.32
3141.00,99.31
3140.00,99.31
3139.00,99.32
3138.00,99.32
3137.00,99.32
3136.00,99.33
3135.00,99.33
3134.00,99.33
3133.00,99.33
3132.00,99.33
3131.00,99.34
3130.00,99.34
3129.00,99.35
3128.00,99.36
3127.00,99.36
3126.00,99.36
3125.00,99.35
3124.00,99.35
3123.00,99.35
3122.00,99.34
3121.00,99.34
3120.00,99.34
3119.00,99.34
3118.00,99.34
3117.00,99.34
3116.00,99.34
3115.00,99.35
3114.00,99.35
3113.00,99.36
3112.00,99.37
3111.00,99.37
3110.00,99.36
3109.00,99.36
3108.00,99.36
3107.00,99.36
3106.00,99.36
3105.00,99.36
3104.00,99.37
3103.00,99.37
3102.00,99.38
3101.00,99.38
3100.00,99.39
3099.00,99.39
3098.00,99.38
3097.00,99.37
3096.00,99.36
3095.00,99.37
3094.00,99.38
3093.00,99.38
3092.00,99.38
3091.00,99.39
3090.00,99.39
3089.00,99.38
3088.00,99.38
3087.00,99.38
3086.00,99.38
3085.00,99.38
3084.00,99.38
3083.00,99.39
3082.00,99.38
3081.00,99.38
3080.00,99.38
3079.00,99.39
3078.00,99.39
3077.00,99.39
3076.00,99.40
3075.00,99.41
3074.00,99.41
3073.00,99.40
3072.00,99.40
3071.00,99.40
3070.00,99.40
3069.00,99.39
3068.00,99.39
3067.00,99.40
3066.00,99.41
3065.00,99.42
3064.00,99.42
3063.00,99.42
3062.00,99.41
3061.00,99.41
3060.00,99.40
3059.00,99.41
3058.00,99.42
3057.00,99.42
3056.00,99.43
3055.00,99.44
3054.00,99.44
3053.00,99.43
3052.00,99.43
3051.00,99.42
3050.00,99.42
3049.00,99.43
3048.00,99.43
3047.00,99.43
3046.00,99.44
3045.00,99.43
3044.00,99.43
3043.00,99.43
3042.00,99.43
3041.00,99.43
3040.00,99.43
3039.00,99.44
3038.00,99.44
3037.00,99.43
3036.00,99.42
3035.00,99.43
3034.00,99.44
3033.00,99.44
3032.00,99.45
3031.00,99.46
3030.00,99.46
3029.00,99.46
3028.00,99.45
3027.00,99.45
3026.00,99.45
3025.00,99.46
3024.00,99.47
3023.00,99.48
3022.00,99.47
3021.00,99.46
3020.00,99.43
3019.00,99.42
3018.00,99.40
3017.00,99.40
3016.00,99.41
3015.00,99.42
3014.00,99.44
3013.00,99.44
3012.00,99.45
3011.00,99.46
3010.00,99.47
3009.00,99.47
3008.00,99.48
3007.00,99.48
3006.00,99.48
3005.00,99.47
3004.00,99.46
3003.00,99.46
3002.00,99.46
3001.00,99.46
3000.00,99.47
2999.00,99.47
2998.00,99.47
2997.00,99.48
2996.00,99.49
2995.00,99.49
2994.00,99.50
2993.00,99.49
2992.00,99.49
2991.00,99.49
2990.00,99.49
2989.00,99.49
2988.00,99.49
2987.00,99.49
2986.00,99.49
2985.00,99.49
2984.00,99.48
2983.00,99.48
2982.00,99.48
2981.00,99.48
2980.00,99.47
2979.00,99.47
2978.00,99.47
2977.00,99.47
2976.00,99.47
2975.00,99.47
2974.00,99.47
2973.00,99.46
2972.00,99.46
2971.00,99.46
2970.00,99.47
2969.00,99.47
2968.00,99.47
2967.00,99.48
2966.00,99.48
2965.00,99.47
2964.00,99.47
2963.00,99.48
2962.00,99.48
2961.00,99.48
2960.00,99.49
2959.00,99.50
2958.00,99.50
2957.00,99.51
2956.00,99.51
2955.00,99.50
2954.00,99.49
2953.00,99.48
2952.00,99.48
2951.00,99.49
2950.00,99.48
2949.00,99.48
2948.00,99.48
2947.00,99.48
2946.00,99.48
2945.00,99.49
2944.00,99.50
2943.00,99.51
2942.00,99.52
2941.00,99.51
2940.00,99.51
2939.00,99.50
2938.00,99.50
2937.00,99.50
2936.00,99.51
2935.00,99.52
2934.00,99.52
2933.00,99.52
2932.00,99.52
2931.00,99.53
2930.00,99.54
2929.00,99.55
2928.00,99.56
2927.00,99.58
2926.00,99.59
2925.00,99.60
2924.00,99.63
2923.00,99.65
2922.00,99.68
2921.00,99.71
2920.00,99.74
2919.00,99.77
2918.00,99.78
2917.00,99.77
2916.00,99.75
2915.00,99.73
2914.00,99.70
2913.00,99.67
2912.00,99.64
2911.00,99.63
2910.00,99.61
2909.00,99.59
2908.00,99.57
2907.00,99.56
2906.00,99.55
2905.00,99.55
2904.00,99.56
2903.00,99.56
2902.00,99.56
2901.00,99.56
2900.00,99.56
2899.00,99.56
2898.00,99.56
2897.00,99.55
2896.00,99.54
2895.00,99.53
2894.00,99.53
2893.00,99.53
2892.00,99.53
2891.00,99.53
2890.00,99.53
2889.00,99.53
2888.00,99.53
2887.00,99.53
2886.00,99.53
2885.00,99.53
2884.00,99.53
2883.00,99.53
2882.00,99.54
2881.00,99.54
2880.00,99.54
2879.00,99.54
2878.00,99.54
2877.00,99.53
2876.00,99.53
2875.00,99.53
2874.00,99.53
2873.00,99.53
2872.00,99.53
2871.00,99.54
2870.00,99.54
2869.00,99.53
2868.00,99.53
2867.00,99.52
2866.00,99.52
2865.00,99.52
2864.00,99.53
2863.00,99.54
2862.00,99.54
2861.00,99.54
2860.00,99.55
2859.00,99.56
2858.00,99.57
2857.00,99.58
2856.00,99.60
2855.00,99.61
2854.00,99.63
2853.00,99.65
2852.00,99.68
2851.00,99.71
2850.00,99.72
2849.00,99.72
2848.00,99.70
2847.00,99.66
2846.00,99.63
2845.00,99.60
2844.00,99.58
2843.00,99.57
2842.00,99.56
2841.00,99.55
2840.00,99.54
2839.00,99.54
2838.00,99.54
2837.00,99.55
2836.00,99.55
2835.00,99.54
2834.00,99.54
2833.00,99.54
2832.00,99.54
2831.00,99.55
2830.00,99.55
2829.00,99.55
2828.00,99.56
2827.00,99.56
2826.00,99.56
2825.00,99.55
2824.00,99.55
2823.00,99.55
2822.00,99.55
2821.00,99.55
2820.00,99.55
2819.00,99.56
2818.00,99.56
2817.00,99.55
2816.00,99.55
2815.00,99.54
2814.00,99.54
2813.00,99.54
2812.00,99.54
2811.00,99.55
2810.00,99.55
2809.00,99.55
2808.00,99.55
2807.00,99.54
2806.00,99.54
2805.00,99.53
2804.00,99.54
2803.00,99.54
2802.00,99.55
2801.00,99.55
2800.00,99.55
2799.00,99.55
2798.00,99.54
2797.00,99.54
2796.00,99.54
2795.00,99.54
2794.00,99.54
2793.00,99.54
2792.00,99.54
2791.00,99.54
2790.00,99.54
2789.00,99.54
2788.00,99.55
2787.00,99.55
2786.00,99.56
2785.00,99.56
2784.00,99.56
2783.00,99.56
2782.00,99.55
2781.00,99.55
2780.00,99.55
2779.00,99.55
2778.00,99.56
2777.00,99.56
2776.00,99.56
2775.00,99.56
2774.00,99.56
2773.00,99.55
2772.00,99.55
2771.00,99.55
2770.00,99.55
2769.00,99.55
2768.00,99.55
2767.00,99.55
2766.00,99.55
2765.00,99.55
2764.00,99.55
2763.00,99.55
2762.00,99.55
2761.00,99.55
2760.00,99.56
2759.00,99.56
2758.00,99.56
2757.00,99.56
2756.00,99.56
2755.00,99.56
2754.00,99.56
2753.00,99.56
2752.00,99.56
2751.00,99.56
2750.00,99.56
2749.00,99.56
2748.00,99.56
2747.00,99.56
2746.00,99.56
2745.00,99.56
2744.00,99.56
2743.00,99.56
2742.00,99.56
2741.00,99.56
2740.00,99.56
2739.00,99.56
2738.00,99.56
2737.00,99.56
2736.00,99.56
2735.00,99.56
2734.00,99.56
2733.00,99.56
2732.00,99.57
2731.00,99.57
2730.00,99.57
2729.00,99.57
2728.00,99.57
2727.00,99.57
2726.00,99.57
2725.00,99.56
2724.00,99.56
2723.00,99.56
2722.00,99.55
2721.00,99.55
2720.00,99.55
2719.00,99.55
2718.00,99.55
2717.00,99.55
2716.00,99.55
2715.00,99.55
2714.00,99.55
2713.00,99.56
2712.00,99.56
2711.00,99.57
2710.00,99.56
2709.00,99.56
2708.00,99.56
2707.00,99.56
2706.00,99.56
2705.00,99.56
2704.00,99.57
2703.00,99.57
2702.00,99.57
2701.00,99.56
2700.00,99.56
2699.00,99.56
2698.00,99.56
2697.00,99.56
2696.00,99.56
2695.00,99.56
2694.00,99.56
2693.00,99.56
2692.00,99.56
2691.00,99.57
2690.00,99.56
2689.00,99.56
2688.00,99.57
2687.00,99.57
2686.00,99.57
2685.00,99.56
2684.00,99.56
2683.00,99.56
2682.00,99.57
2681.00,99.57
2680.00,99.57
2679.00,99.57
2678.00,99.56
2677.00,99.56
2676.00,99.56
2675.00,99.56
2674.00,99.57
2673.00,99.57
2672.00,99.58
2671.00,99.58
2670.00,99.57
2669.00,99.57
2668.00,99.56
2667.00,99.56
2666.00,99.56
2665.00,99.56
2664.00,99.56
2663.00,99.56
2662.00,99.57
2661.00,99.57
2660.00,99.58
2659.00,99.58
2658.00,99.57
2657.00,99.57
2656.00,99.57
2655.00,99.57
2654.00,99.57
2653.00,99.56
2652.00,99.56
2651.00,99.56
2650.00,99.56
2649.00,99.56
2648.00,99.57
2647.00,99.57
2646.00,99.56
2645.00,99.56
2644.00,99.57
2643.00,99.57
2642.00,99.57
2641.00,99.57
2640.00,99.57
2639.00,99.58
2638.00,99.58
2637.00,99.57
2636.00,99.57
2635.00,99.56
2634.00,99.56
2633.00,99.56
2632.00,99.57
2631.00,99.58
2630.00,99.58
2629.00,99.58
2628.00,99.58
2627.00,99.58
2626.00,99.58
2625.00,99.57
2624.00,99.57
2623.00,99.57
2622.00,99.57
2621.00,99.57
2620.00,99.57
2619.00,99.57
2618.00,99.57
2617.00,99.57
2616.00,99.57
2615.00,99.58
2614.00,99.58
2613.00,99.57
2612.00,99.57
2611.00,99.57
2610.00,99.57
2609.00,99.57
2608.00,99.57
2607.00,99.57
2606.00,99.58
2605.00,99.58
2604.00,99.58
2603.00,99.58
2602.00,99.58
2601.00,99.57
2600.00,99.58
2599.00,99.58
2598.00,99.58
2597.00,99.57
2596.00,99.57
2595.00,99.57
2594.00,99.57
2593.00,99.57
2592.00,99.57
2591.00,99.57
2590.00,99.57
2589.00,99.57
2588.00,99.58
2587.00,99.58
2586.00,99.58
2585.00,99.58
2584.00,99.58
2583.00,99.57
2582.00,99.57
2581.00,99.56
2580.00,99.56
2579.00,99.55
2578.00,99.55
2577.00,99.56
2576.00,99.56
2575.00,99.57
2574.00,99.58
2573.00,99.58
2572.00,99.58
2571.00,99.58
2570.00,99.58
2569.00,99.57
2568.00,99.57
2567.00,99.57
2566.00,99.57
2565.00,99.57
2564.00,99.57
2563.00,99.58
2562.00,99.58
2561.00,99.58
2560.00,99.58
2559.00,99.58
2558.00,99.57
2557.00,99.57
2556.00,99.57
2555.00,99.57
2554.00,99.57
2553.00,99.57
2552.00,99.57
2551.00,99.57
2550.00,99.57
2549.00,99.57
2548.00,99.57
2547.00,99.57
2546.00,99.57
2545.00,99.58
2544.00,99.58
2543.00,99.57
2542.00,99.57
2541.00,99.57
2540.00,99.58
2539.00,99.59
2538.00,99.58
2537.00,99.58
2536.00,99.57
2535.00,99.57
2534.00,99.57
2533.00,99.57
2532.00,99.57
2531.00,99.58
2530.00,99.57
2529.00,99.57
2528.00,99.58
2527.00,99.58
2526.00,99.57
2525.00,99.57
2524.00,99.57
2523.00,99.57
2522.00,99.57
2521.00,99.57
2520.00,99.58
2519.00,99.58
2518.00,99.58
2517.00,99.58
2516.00,99.58
2515.00,99.58
2514.00,99.58
2513.00,99.58
2512.00,99.58
2511.00,99.58
2510.00,99.58
2509.00,99.58
2508.00,99.58
2507.00,99.57
2506.00,99.57
2505.00,99.56
2504.00,99.57
2503.00,99.57
2502.00,99.57
2501.00,99.58
2500.00,99.58
2499.00,99.59
2498.00,99.58
2497.00,99.58
2496.00,99.57
2495.00,99.57
2494.00,99.57
2493.00,99.57
2492.00,99.57
2491.00,99.58
2490.00,99.59
2489.00,99.59
2488.00,99.59
2487.00,99.59
2486.00,99.59
2485.00,99.58
2484.00,99.58
2483.00,99.58
2482.00,99.58
2481.00,99.58
2480.00,99.58
2479.00,99.58
2478.00,99.58
2477.00,99.58
2476.00,99.58
2475.00,99.57
2474.00,99.57
2473.00,99.57
2472.00,99.57
2471.00,99.58
2470.00,99.58
2469.00,99.58
2468.00,99.58
2467.00,99.58
2466.00,99.58
2465.00,99.58
2464.00,99.58
2463.00,99.58
2462.00,99.58
2461.00,99.57
2460.00,99.58
2459.00,99.58
2458.00,99.58
2457.00,99.58
2456.00,99.58
2455.00,99.59
2454.00,99.59
2453.00,99.59
2452.00,99.59
2451.00,99.59
2450.00,99.58
2449.00,99.58
2448.00,99.58
2447.00,99.57
2446.00,99.57
2445.00,99.57
2444.00,99.57
2443.00,99.57
2442.00,99.57
2441.00,99.57
2440.00,99.57
2439.00,99.58
2438.00,99.58
2437.00,99.58
2436.00,99.58
2435.00,99.58
2434.00,99.58
2433.00,99.57
2432.00,99.57
2431.00,99.57
2430.00,99.56
2429.00,99.57
2428.00,99.57
2427.00,99.58
2426.00,99.58
2425.00,99.58
2424.00,99.58
2423.00,99.58
2422.00,99.58
2421.00,99.58
2420.00,99.58
2419.00,99.58
2418.00,99.58
2417.00,99.58
2416.00,99.58
2415.00,99.58
2414.00,99.58
2413.00,99.58
2412.00,99.59
2411.00,99.59
2410.00,99.59
2409.00,99.59
2408.00,99.58
2407.00,99.58
2406.00,99.57
2405.00,99.57
2404.00,99.58
2403.00,99.58
2402.00,99.58
2401.00,99.58
2400.00,99.58
2399.00,99.58
2398.00,99.58
2397.00,99.58
2396.00,99.58
2395.00,99.59
2394.00,99.58
2393.00,99.58
2392.00,99.58
2391.00,99.58
2390.00,99.57
2389.00,99.56
2388.00,99.56
2387.00,99.56
2386.00,99.56
2385.00,99.55
2384.00,99.55
2383.00,99.55
2382.00,99.54
2381.00,99.54
2380.00,99.54
2379.00,99.56
2378.00,99.57
2377.00,99.58
2376.00,99.59
2375.00,99.59
2374.00,99.58
2373.00,99.56
2372.00,99.54
2371.00,99.53
2370.00,99.51
2369.00,99.51
2368.00,99.51
2367.00,99.52
2366.00,99.53
2365.00,99.54
2364.00,99.55
2363.00,99.55
2362.00,99.53
2361.00,99.50
2360.00,99.48
2359.00,99.47
2358.00,99.47
2357.00,99.48
2356.00,99.50
2355.00,99.53
2354.00,99.54
2353.00,99.55
2352.00,99.54
2351.00,99.52
2350.00,99.50
2349.00,99.50
2348.00,99.51
2347.00,99.50
2346.00,99.50
2345.00,99.49
2344.00,99.48
2343.00,99.47
2342.00,99.46
2341.00,99.47
2340.00,99.47
2339.00,99.48
2338.00,99.49
2337.00,99.51
2336.00,99.54
2335.00,99.54
2334.00,99.54
2333.00,99.54
2332.00,99.52
2331.00,99.50
2330.00,99.49
2329.00,99.49
2328.00,99.49
2327.00,99.48
2326.00,99.47
2325.00,99.46
2324.00,99.46
2323.00,99.46
2322.00,99.46
2321.00,99.47
2320.00,99.49
2319.00,99.50
2318.00,99.50
2317.00,99.50
2316.00,99.50
2315.00,99.50
2314.00,99.50
2313.00,99.50
2312.00,99.50
2311.00,99.50
2310.00,99.49
2309.00,99.49
2308.00,99.50
2307.00,99.50
2306.00,99.50
2305.00,99.50
2304.00,99.51
2303.00,99.51
2302.00,99.51
2301.00,99.52
2300.00,99.52
2299.00,99.52
2298.00,99.52
2297.00,99.52
2296.00,99.53
2295.00,99.54
2294.00,99.54
2293.00,99.54
2292.00,99.55
2291.00,99.55
2290.00,99.56
2289.00,99.57
2288.00,99.58
2287.00,99.58
2286.00,99.58
2285.00,99.57
2284.00,99.57
2283.00,99.57
2282.00,99.57
2281.00,99.57
2280.00,99.57
2279.00,99.56
2278.00,99.56
2277.00,99.56
2276.00,99.56
2275.00,99.57
2274.00,99.57
2273.00,99.58
2272.00,99.58
2271.00,99.58
2270.00,99.58
2269.00,99.58
2268.00,99.59
2267.00,99.58
2266.00,99.58
2265.00,99.58
2264.00,99.58
2263.00,99.58
2262.00,99.58
2261.00,99.57
2260.00,99.57
2259.00,99.57
2258.00,99.57
2257.00,99.57
2256.00,99.58
2255.00,99.58
2254.00,99.57
2253.00,99.57
2252.00,99.57
2251.00,99.56
2250.00,99.56
2249.00,99.56
2248.00,99.56
2247.00,99.56
2246.00,99.56
2245.00,99.55
2244.00,99.55
2243.00,99.55
2242.00,99.55
2241.00,99.55
2240.00,99.55
2239.00,99.55
2238.00,99.55
2237.00,99.55
2236.00,99.55
2235.00,99.55
2234.00,99.55
2233.00,99.56
2232.00,99.56
2231.00,99.57
2230.00,99.57
2229.00,99.57
2228.00,99.58
2227.00,99.58
2226.00,99.58
2225.00,99.59
2224.00,99.59
2223.00,99.59
2222.00,99.58
2221.00,99.58
2220.00,99.57
2219.00,99.57
2218.00,99.56
2217.00,99.56
2216.00,99.57
2215.00,99.57
2214.00,99.56
2213.00,99.55
2212.00,99.55
2211.00,99.54
2210.00,99.54
2209.00,99.55
2208.00,99.56
2207.00,99.56
2206.00,99.55
2205.00,99.55
2204.00,99.56
2203.00,99.56
2202.00,99.56
2201.00,99.56
2200.00,99.56
2199.00,99.56
2198.00,99.56
2197.00,99.56
2196.00,99.57
2195.00,99.57
2194.00,99.57
2193.00,99.57
2192.00,99.58
2191.00,99.58
2190.00,99.57
2189.00,99.58
2188.00,99.58
2187.00,99.58
2186.00,99.57
2185.00,99.57
2184.00,99.58
2183.00,99.58
2182.00,99.58
2181.00,99.58
2180.00,99.58
2179.00,99.58
2178.00,99.58
2177.00,99.58
2176.00,99.59
2175.00,99.58
2174.00,99.58
2173.00,99.57
2172.00,99.58
2171.00,99.57
2170.00,99.57
2169.00,99.57
2168.00,99.58
2167.00,99.58
2166.00,99.57
2165.00,99.57
2164.00,99.58
2163.00,99.58
2162.00,99.58
2161.00,99.58
2160.00,99.58
2159.00,99.58
2158.00,99.57
2157.00,99.57
2156.00,99.57
2155.00,99.57
2154.00,99.57
2153.00,99.57
2152.00,99.58
2151.00,99.58
2150.00,99.58
2149.00,99.58
2148.00,99.58
2147.00,99.58
2146.00,99.57
2145.00,99.58
2144.00,99.58
2143.00,99.58
2142.00,99.58
2141.00,99.58
2140.00,99.58
2139.00,99.58
2138.00,99.57
2137.00,99.57
2136.00,99.57
2135.00,99.58
2134.00,99.58
2133.00,99.58
2132.00,99.59
2131.00,99.58
2130.00,99.57
2129.00,99.57
2128.00,99.58
2127.00,99.58
2126.00,99.58
2125.00,99.58
2124.00,99.59
2123.00,99.58
2122.00,99.57
2121.00,99.57
2120.00,99.57
2119.00,99.57
2118.00,99.57
2117.00,99.57
2116.00,99.59
2115.00,99.59
2114.00,99.59
2113.00,99.59
2112.00,99.59
2111.00,99.58
2110.00,99.58
2109.00,99.58
2108.00,99.58
2107.00,99.58
2106.00,99.58
2105.00,99.59
2104.00,99.59
2103.00,99.58
2102.00,99.58
2101.00,99.58
2100.00,99.58
2099.00,99.58
2098.00,99.58
2097.00,99.58
2096.00,99.59
2095.00,99.59
2094.00,99.59
2093.00,99.60
2092.00,99.61
2091.00,99.61
2090.00,99.60
2089.00,99.60
2088.00,99.59
2087.00,99.58
2086.00,99.57
2085.00,99.57
2084.00,99.58
2083.00,99.57
2082.00,99.57
2081.00,99.57
2080.00,99.58
2079.00,99.58
2078.00,99.58
2077.00,99.59
2076.00,99.60
2075.00,99.59
2074.00,99.58
2073.00,99.58
2072.00,99.59
2071.00,99.59
2070.00,99.58
2069.00,99.59
2068.00,99.60
2067.00,99.61
2066.00,99.60
2065.00,99.61
2064.00,99.61
2063.00,99.59
2062.00,99.58
2061.00,99.58
2060.00,99.59
2059.00,99.59
2058.00,99.58
2057.00,99.59
2056.00,99.59
2055.00,99.59
2054.00,99.59
2053.00,99.59
2052.00,99.60
2051.00,99.60
2050.00,99.59
2049.00,99.59
2048.00,99.59
2047.00,99.59
2046.00,99.58
2045.00,99.59
2044.00,99.60
2043.00,99.60
2042.00,99.59
2041.00,99.59
2040.00,99.60
2039.00,99.59
2038.00,99.59
2037.00,99.59
2036.00,99.59
2035.00,99.59
2034.00,99.58
2033.00,99.59
2032.00,99.60
2031.00,99.60
2030.00,99.59
2029.00,99.60
2028.00,99.61
2027.00,99.60
2026.00,99.59
2025.00,99.58
2024.00,99.59
2023.00,99.59
2022.00,99.58
2021.00,99.58
2020.00,99.60
2019.00,99.61
2018.00,99.61
2017.00,99.61
2016.00,99.61
2015.00,99.60
2014.00,99.58
2013.00,99.58
2012.00,99.60
2011.00,99.60
2010.00,99.59
2009.00,99.59
2008.00,99.60
2007.00,99.60
2006.00,99.59
2005.00,99.58
2004.00,99.59
2003.00,99.60
2002.00,99.59
2001.00,99.59
2000.00,99.60
1999.00,99.59
1998.00,99.59
1997.00,99.58
1996.00,99.59
1995.00,99.61
1994.00,99.63
1993.00,99.64
1992.00,99.65
1991.00,99.64
1990.00,99.62
1989.00,99.60
1988.00,99.60
1987.00,99.60
1986.00,99.60
1985.00,99.59
1984.00,99.60
1983.00,99.60
1982.00,99.60
1981.00,99.60
1980.00,99.59
1979.00,99.60
1978.00,99.61
1977.00,99.61
1976.00,99.60
1975.00,99.60
1974.00,99.60
1973.00,99.59
1972.00,99.58
1971.00,99.59
1970.00,99.62
1969.00,99.65
1968.00,99.65
1967.00,99.65
1966.00,99.63
1965.00,99.60
1964.00,99.57
1963.00,99.58
1962.00,99.60
1961.00,99.60
1960.00,99.59
1959.00,99.59
1958.00,99.60
1957.00,99.60
1956.00,99.59
1955.00,99.59
1954.00,99.61
1953.00,99.61
1952.00,99.59
1951.00,99.58
1950.00,99.59
1949.00,99.60
1948.00,99.60
1947.00,99.61
1946.00,99.64
1945.00,99.69
1944.00,99.71
1943.00,99.70
1942.00,99.67
1941.00,99.62
1940.00,99.58
1939.00,99.56
1938.00,99.57
1937.00,99.59
1936.00,99.60
1935.00,99.60
1934.00,99.60
1933.00,99.61
1932.00,99.60
1931.00,99.58
1930.00,99.58
1929.00,99.60
1928.00,99.60
1927.00,99.59
1926.00,99.59
1925.00,99.66
1924.00,99.70
1923.00,99.67
1922.00,99.61
1921.00,99.59
1920.00,99.57
1919.00,99.53
1918.00,99.50
1917.00,99.51
1916.00,99.53
1915.00,99.51
1914.00,99.52
1913.00,99.57
1912.00,99.63
1911.00,99.64
1910.00,99.65
1909.00,99.68
1908.00,99.69
1907.00,99.64
1906.00,99.58
1905.00,99.60
1904.00,99.63
1903.00,99.60
1902.00,99.57
1901.00,99.59
1900.00,99.62
1899.00,99.60
1898.00,99.58
1897.00,99.63
1896.00,99.69
1895.00,99.66
1894.00,99.60
1893.00,99.62
1892.00,99.68
1891.00,99.70
1890.00,99.69
1889.00,99.70
1888.00,99.69
1887.00,99.61
1886.00,99.55
1885.00,99.58
1884.00,99.62
1883.00,99.59
1882.00,99.55
1881.00,99.58
1880.00,99.62
1879.00,99.60
1878.00,99.55
1877.00,99.56
1876.00,99.60
1875.00,99.57
1874.00,99.50
1873.00,99.52
1872.00,99.60
1871.00,99.66
1870.00,99.68
1869.00,99.75
1868.00,99.80
1867.00,99.73
1866.00,99.60
1865.00,99.56
1864.00,99.58
1863.00,99.57
1862.00,99.53
1861.00,99.57
1860.00,99.64
1859.00,99.63
1858.00,99.58
1857.00,99.58
1856.00,99.63
1855.00,99.61
1854.00,99.58
1853.00,99.58
1852.00,99.59
1851.00,99.57
1850.00,99.55
1849.00,99.55
1848.00,99.58
1847.00,99.61
1846.00,99.63
1845.00,99.63
1844.00,99.59
1843.00,99.48
1842.00,99.41
1841.00,99.42
1840.00,99.50
1839.00,99.54
1838.00,99.56
1837.00,99.59
1836.00,99.60
1835.00,99.57
1834.00,99.55
1833.00,99.61
1832.00,99.73
1831.00,99.84
1830.00,99.87
1829.00,99.81
1828.00,99.73
1827.00,99.66
1826.00,99.59
1825.00,99.56
1824.00,99.58
1823.00,99.59
1822.00,99.55
1821.00,99.53
1820.00,99.58
1819.00,99.61
1818.00,99.55
1817.00,99.54
1816.00,99.61
1815.00,99.65
1814.00,99.60
1813.00,99.57
1812.00,99.65
1811.00,99.67
1810.00,99.59
1809.00,99.56
1808.00,99.62
1807.00,99.61
1806.00,99.53
1805.00,99.53
1804.00,99.59
1803.00,99.57
1802.00,99.46
1801.00,99.42
1800.00,99.51
1799.00,99.53
1798.00,99.46
1797.00,99.44
1796.00,99.49
1795.00,99.47
1794.00,99.34
1793.00,99.27
1792.00,99.36
1791.00,99.40
1790.00,99.35
1789.00,99.35
1788.00,99.40
1787.00,99.38
1786.00,99.30
1785.00,99.31
1784.00,99.42
1783.00,99.50
1782.00,99.52
1781.00,99.49
1780.00,99.49
1779.00,99.48
1778.00,99.44
1777.00,99.39
1776.00,99.38
1775.00,99.45
1774.00,99.47
1773.00,99.37
1772.00,99.34
1771.00,99.37
1770.00,99.31
1769.00,99.19
1768.00,99.17
1767.00,99.25
1766.00,99.30
1765.00,99.32
1764.00,99.39
1763.00,99.52
1762.00,99.54
1761.00,99.45
1760.00,99.40
1759.00,99.42
1758.00,99.41
1757.00,99.28
1756.00,99.16
1755.00,99.12
1754.00,98.98
1753.00,98.65
1752.00,98.38
1751.00,98.47
1750.00,98.78
1749.00,99.02
1748.00,99.14
1747.00,99.29
1746.00,99.39
1745.00,99.34
1744.00,99.31
1743.00,99.36
1742.00,99.38
1741.00,99.30
1740.00,99.22
1739.00,99.21
1738.00,99.18
1737.00,99.07
1736.00,98.84
1735.00,98.53
1734.00,98.46
1733.00,98.62
1732.00,98.83
1731.00,99.05
1730.00,99.25
1729.00,99.35
1728.00,99.37
1727.00,99.38
1726.00,99.38
1725.00,99.37
1724.00,99.37
1723.00,99.32
1722.00,99.24
1721.00,99.23
1720.00,99.31
1719.00,99.20
1718.00,98.91
1717.00,98.88
1716.00,99.05
1715.00,99.05
1714.00,98.98
1713.00,99.11
1712.00,99.31
1711.00,99.33
1710.00,99.25
1709.00,99.26
1708.00,99.39
1707.00,99.45
1706.00,99.39
1705.00,99.41
1704.00,99.49
1703.00,99.44
1702.00,99.16
1701.00,98.94
1700.00,99.02
1699.00,99.02
1698.00,98.93
1697.00,99.08
1696.00,99.35
1695.00,99.34
1694.00,99.10
1693.00,99.01
1692.00,99.13
1691.00,99.22
1690.00,99.19
1689.00,99.10
1688.00,99.11
1687.00,99.27
1686.00,99.35
1685.00,99.29
1684.00,99.21
1683.00,99.21
1682.00,99.25
1681.00,99.27
1680.00,99.21
1679.00,99.20
1678.00,99.25
1677.00,99.21
1676.00,99.06
1675.00,99.04
1674.00,99.14
1673.00,99.15
1672.00,99.12
1671.00,99.16
1670.00,99.33
1669.00,99.44
1668.00,99.37
1667.00,99.31
1666.00,99.34
1665.00,99.38
1664.00,99.32
1663.00,99.26
1662.00,99.30
1661.00,99.28
1660.00,99.15
1659.00,99.11
1658.00,99.18
1657.00,99.24
1656.00,99.33
1655.00,99.49
1654.00,99.62
1653.00,99.77
1652.00,99.69
1651.00,99.35
1650.00,99.16
1649.00,99.12
1648.00,99.10
1647.00,99.06
1646.00,99.06
1645.00,99.07
1644.00,99.04
1643.00,99.01
1642.00,99.02
1641.00,99.04
1640.00,99.04
1639.00,99.06
1638.00,99.10
1637.00,99.09
1636.00,99.08
1635.00,99.16
1634.00,99.18
1633.00,99.19
1632.00,99.19
1631.00,99.16
1630.00,99.18
1629.00,99.26
1628.00,99.30
1627.00,99.31
1626.00,99.36
1625.00,99.39
1624.00,99.33
1623.00,99.28
1622.00,99.34
1621.00,99.38
1620.00,99.35
1619.00,99.37
1618.00,99.48
1617.00,99.54
1616.00,99.42
1615.00,99.27
1614.00,99.31
1613.00,99.40
1612.00,99.36
1611.00,99.28
1610.00,99.35
1609.00,99.48
1608.00,99.44
1607.00,99.39
1606.00,99.47
1605.00,99.52
1604.00,99.45
1603.00,99.43
1602.00,99.52
1601.00,99.56
1600.00,99.48
1599.00,99.43
1598.00,99.51
1597.00,99.58
1596.00,99.54
1595.00,99.50
1594.00,99.56
1593.00,99.62
1592.00,99.56
1591.00,99.49
1590.00,99.53
1589.00,99.59
1588.00,99.53
1587.00,99.46
1586.00,99.52
1585.00,99.56
1584.00,99.46
1583.00,99.40
1582.00,99.52
1581.00,99.61
1580.00,99.58
1579.00,99.65
1578.00,99.85
1577.00,99.92
1576.00,99.71
1575.00,99.50
1574.00,99.47
1573.00,99.51
1572.00,99.52
1571.00,99.53
1570.00,99.62
1569.00,99.60
1568.00,99.38
1567.00,99.27
1566.00,99.35
1565.00,99.37
1564.00,99.29
1563.00,99.36
1562.00,99.61
1561.00,99.54
1560.00,98.92
1559.00,98.76
1558.00,99.18
1557.00,99.29
1556.00,99.13
1555.00,99.04
1554.00,99.07
1553.00,99.04
1552.00,99.01
1551.00,99.06
1550.00,99.12
1549.00,99.10
1548.00,98.97
1547.00,98.87
1546.00,98.90
1545.00,99.00
1544.00,99.11
1543.00,99.16
1542.00,99.08
1541.00,99.01
1540.00,99.06
1539.00,99.13
1538.00,99.14
1537.00,99.16
1536.00,99.20
1535.00,99.23
1534.00,99.26
1533.00,99.31
1532.00,99.36
1531.00,99.30
1530.00,99.21
1529.00,99.20
1528.00,99.24
1527.00,99.21
1526.00,99.12
1525.00,99.08
1524.00,99.14
1523.00,99.22
1522.00,99.23
1521.00,99.27
1520.00,99.30
1519.00,99.29
1518.00,99.26
1517.00,99.24
1516.00,99.25
1515.00,99.20
1514.00,99.05
1513.00,98.95
1512.00,99.02
1511.00,99.11
1510.00,99.06
1509.00,98.92
1508.00,98.86
1507.00,98.88
1506.00,98.89
1505.00,98.89
1504.00,98.97
1503.00,99.11
1502.00,99.20
1501.00,99.23
1500.00,99.31
1499.00,99.38
1498.00,99.25
1497.00,99.10
1496.00,99.14
1495.00,99.21
1494.00,99.14
1493.00,99.07
1492.00,99.10
1491.00,99.14
1490.00,99.16
1489.00,99.32
1488.00,99.56
1487.00,99.59
1486.00,99.53
1485.00,99.54
1484.00,99.57
1483.00,99.57
1482.00,99.51
1481.00,99.50
1480.00,99.51
1479.00,99.46
1478.00,99.33
1477.00,99.28
1476.00,99.25
1475.00,99.09
1474.00,98.86
1473.00,98.78
1472.00,98.96
1471.00,99.14
1470.00,99.20
1469.00,99.28
1468.00,99.40
1467.00,99.45
1466.00,99.39
1465.00,99.29
1464.00,99.28
1463.00,99.30
1462.00,99.26
1461.00,99.22
1460.00,99.27
1459.00,99.37
1458.00,99.30
1457.00,99.10
1456.00,99.00
1455.00,99.06
1454.00,99.16
1453.00,99.22
1452.00,99.29
1451.00,99.37
1450.00,99.36
1449.00,99.32
1448.00,99.37
1447.00,99.51
1446.00,99.59
1445.00,99.51
1444.00,99.48
1443.00,99.55
1442.00,99.57
1441.00,99.45
1440.00,99.39
1439.00,99.46
1438.00,99.43
1437.00,99.27
1436.00,99.23
1435.00,99.36
1434.00,99.43
1433.00,99.40
1432.00,99.42
1431.00,99.56
1430.00,99.63
1429.00,99.56
1428.00,99.48
1427.00,99.50
1426.00,99.53
1425.00,99.39
1424.00,99.27
1423.00,99.38
1422.00,99.53
1421.00,99.51
1420.00,99.43
1419.00,99.48
1418.00,99.46
1417.00,99.30
1416.00,99.27
1415.00,99.44
1414.00,99.57
1413.00,99.52
1412.00,99.47
1411.00,99.57
1410.00,99.63
1409.00,99.56
1408.00,99.48
1407.00,99.52
1406.00,99.57
1405.00,99.49
1404.00,99.41
1403.00,99.45
1402.00,99.49
1401.00,99.41
1400.00,99.30
1399.00,99.30
1398.00,99.35
1397.00,99.37
1396.00,99.37
1395.00,99.47
1394.00,99.55
1393.00,99.46
1392.00,99.35
1391.00,99.38
1390.00,99.48
1389.00,99.50
1388.00,99.47
1387.00,99.47
1386.00,99.49
1385.00,99.47
1384.00,99.44
1383.00,99.45
1382.00,99.47
1381.00,99.46
1380.00,99.43
1379.00,99.41
1378.00,99.43
1377.00,99.45
1376.00,99.46
1375.00,99.50
1374.00,99.57
1373.00,99.58
1372.00,99.52
1371.00,99.47
1370.00,99.49
1369.00,99.50
1368.00,99.45
1367.00,99.43
1366.00,99.46
1365.00,99.52
1364.00,99.57
1363.00,99.60
1362.00,99.60
1361.00,99.57
1360.00,99.50
1359.00,99.47
1358.00,99.47
1357.00,99.49
1356.00,99.49
1355.00,99.50
1354.00,99.51
1353.00,99.51
1352.00,99.50
1351.00,99.49
1350.00,99.51
1349.00,99.52
1348.00,99.49
1347.00,99.48
1346.00,99.50
1345.00,99.50
1344.00,99.49
1343.00,99.49
1342.00,99.52
1341.00,99.52
1340.00,99.52
1339.00,99.52
1338.00,99.54
1337.00,99.54
1336.00,99.51
1335.00,99.50
1334.00,99.51
1333.00,99.52
1332.00,99.51
1331.00,99.52
1330.00,99.54
1329.00,99.54
1328.00,99.51
1327.00,99.51
1326.00,99.54
1325.00,99.54
1324.00,99.51
1323.00,99.50
1322.00,99.52
1321.00,99.52
1320.00,99.51
1319.00,99.52
1318.00,99.54
1317.00,99.54
1316.00,99.51
1315.00,99.52
1314.00,99.54
1313.00,99.54
1312.00,99.52
1311.00,99.52
1310.00,99.53
1309.00,99.51
1308.00,99.47
1307.00,99.47
1306.00,99.50
1305.00,99.50
1304.00,99.48
1303.00,99.48
1302.00,99.50
1301.00,99.50
1300.00,99.48
1299.00,99.49
1298.00,99.51
1297.00,99.51
1296.00,99.49
1295.00,99.50
1294.00,99.52
1293.00,99.51
1292.00,99.49
1291.00,99.50
1290.00,99.52
1289.00,99.51
1288.00,99.49
1287.00,99.49
1286.00,99.51
1285.00,99.50
1284.00,99.48
1283.00,99.48
1282.00,99.50
1281.00,99.49
1280.00,99.47
1279.00,99.47
1278.00,99.48
1277.00,99.47
1276.00,99.44
1275.00,99.45
1274.00,99.48
1273.00,99.48
1272.00,99.46
1271.00,99.46
1270.00,99.47
1269.00,99.46
1268.00,99.43
1267.00,99.43
1266.00,99.45
1265.00,99.44
1264.00,99.41
1263.00,99.41
1262.00,99.43
1261.00,99.43
1260.00,99.41
1259.00,99.41
1258.00,99.43
1257.00,99.43
1256.00,99.42
1255.00,99.43
1254.00,99.45
1253.00,99.44
1252.00,99.41
1251.00,99.41
1250.00,99.43
1249.00,99.43
1248.00,99.41
1247.00,99.42
1246.00,99.45
1245.00,99.46
1244.00,99.45
1243.00,99.46
1242.00,99.47
1241.00,99.46
1240.00,99.43
1239.00,99.43
1238.00,99.45
1237.00,99.44
1236.00,99.42
1235.00,99.41
1234.00,99.43
1233.00,99.42
1232.00,99.39
1231.00,99.39
1230.00,99.41
1229.00,99.40
1228.00,99.39
1227.00,99.40
1226.00,99.42
1225.00,99.42
1224.00,99.40
1223.00,99.41
1222.00,99.43
1221.00,99.42
1220.00,99.40
1219.00,99.41
1218.00,99.42
1217.00,99.41
1216.00,99.38
1215.00,99.38
1214.00,99.40
1213.00,99.39
1212.00,99.38
1211.00,99.39
1210.00,99.41
1209.00,99.41
1208.00,99.40
1207.00,99.41
1206.00,99.45
1205.00,99.45
1204.00,99.44
1203.00,99.44
1202.00,99.44
1201.00,99.41
1200.00,99.38
1199.00,99.39
1198.00,99.42
1197.00,99.41
1196.00,99.40
1195.00,99.40
1194.00,99.43
1193.00,99.43
1192.00,99.40
1191.00,99.41
1190.00,99.42
1189.00,99.41
1188.00,99.40
1187.00,99.41
1186.00,99.44
1185.00,99.42
1184.00,99.40
1183.00,99.40
1182.00,99.43
1181.00,99.43
1180.00,99.42
1179.00,99.43
1178.00,99.45
1177.00,99.44
1176.00,99.42
1175.00,99.43
1174.00,99.44
1173.00,99.44
1172.00,99.41
1171.00,99.42
1170.00,99.43
1169.00,99.41
1168.00,99.38
1167.00,99.39
1166.00,99.43
1165.00,99.44
1164.00,99.43
1163.00,99.43
1162.00,99.45
1161.00,99.43
1160.00,99.40
1159.00,99.41
1158.00,99.43
1157.00,99.42
1156.00,99.39
1155.00,99.39
1154.00,99.41
1153.00,99.40
1152.00,99.37
1151.00,99.37
1150.00,99.39
1149.00,99.39
1148.00,99.38
1147.00,99.39
1146.00,99.41
1145.00,99.39
1144.00,99.35
1143.00,99.34
1142.00,99.34
1141.00,99.32
1140.00,99.30
1139.00,99.33
1138.00,99.37
1137.00,99.38
1136.00,99.36
1135.00,99.35
1134.00,99.35
1133.00,99.34
1132.00,99.32
1131.00,99.34
1130.00,99.38
1129.00,99.37
1128.00,99.34
1127.00,99.35
1126.00,99.36
1125.00,99.35
1124.00,99.33
1123.00,99.34
1122.00,99.36
1121.00,99.35
1120.00,99.33
1119.00,99.34
1118.00,99.38
1117.00,99.37
1116.00,99.35
1115.00,99.36
1114.00,99.38
1113.00,99.36
1112.00,99.32
1111.00,99.33
1110.00,99.37
1109.00,99.36
1108.00,99.32
1107.00,99.31
1106.00,99.34
1105.00,99.34
1104.00,99.32
1103.00,99.33
1102.00,99.36
1101.00,99.34
1100.00,99.30
1099.00,99.32
1098.00,99.35
1097.00,99.33
1096.00,99.28
1095.00,99.27
1094.00,99.29
1093.00,99.27
1092.00,99.22
1091.00,99.21
1090.00,99.22
1089.00,99.21
1088.00,99.20
1087.00,99.24
1086.00,99.30
1085.00,99.29
1084.00,99.24
1083.00,99.23
1082.00,99.25
1081.00,99.23
1080.00,99.19
1079.00,99.21
1078.00,99.26
1077.00,99.25
1076.00,99.22
1075.00,99.24
1074.00,99.28
1073.00,99.24
1072.00,99.18
1071.00,99.18
1070.00,99.21
1069.00,99.19
1068.00,99.14
1067.00,99.15
1066.00,99.18
1065.00,99.17
1064.00,99.14
1063.00,99.19
1062.00,99.26
1061.00,99.27
1060.00,99.25
1059.00,99.30
1058.00,99.37
1057.00,99.37
1056.00,99.31
1055.00,99.29
1054.00,99.27
1053.00,99.21
1052.00,99.16
1051.00,99.20
1050.00,99.26
1049.00,99.23
1048.00,99.16
1047.00,99.19
1046.00,99.27
1045.00,99.26
1044.00,99.18
1043.00,99.17
1042.00,99.19
1041.00,99.15
1040.00,99.10
1039.00,99.12
1038.00,99.19
1037.00,99.19
1036.00,99.16
1035.00,99.19
1034.00,99.25
1033.00,99.22
1032.00,99.14
1031.00,99.14
1030.00,99.17
1029.00,99.14
1028.00,99.08
1027.00,99.10
1026.00,99.13
1025.00,99.07
1024.00,98.98
1023.00,98.97
1022.00,99.01
1021.00,98.99
1020.00,98.93
1019.00,98.96
1018.00,99.03
1017.00,99.02
1016.00,98.98
1015.00,99.04
1014.00,99.12
1013.00,99.10
1012.00,99.00
1011.00,99.01
1010.00,99.09
1009.00,99.08
1008.00,99.02
1007.00,99.02
1006.00,99.03
1005.00,98.94
1004.00,98.79
1003.00,98.78
1002.00,98.87
1001.00,98.92
1000.00,98.94
999.00,99.04
998.00,99.13
997.00,99.10
996.00,99.02
995.00,99.05
994.00,99.14
993.00,99.11
992.00,99.03
991.00,99.05
990.00,99.11
989.00,99.07
988.00,99.02
987.00,99.16
986.00,99.35
985.00,99.36
984.00,99.23
983.00,99.18
982.00,99.20
981.00,99.11
980.00,98.98
979.00,99.02
978.00,99.16
977.00,99.16
976.00,99.11
975.00,99.20
974.00,99.37
973.00,99.36
972.00,99.21
971.00,99.16
970.00,99.16
969.00,98.99
968.00,98.80
967.00,98.81
966.00,98.86
965.00,98.69
964.00,98.48
963.00,98.62
962.00,98.97
961.00,99.09
960.00,99.04
959.00,99.16
958.00,99.36
957.00,99.32
956.00,99.15
955.00,99.20
954.00,99.29
953.00,99.02
952.00,98.63
951.00,98.59
950.00,98.73
949.00,98.54
948.00,98.25
947.00,98.45
946.00,98.98
945.00,99.21
944.00,99.16
943.00,99.28
942.00,99.33
941.00,98.88
940.00,98.35
939.00,98.46
938.00,98.77
937.00,98.44
936.00,97.84
935.00,97.90
934.00,98.44
933.00,98.66
932.00,98.78
931.00,99.47
930.00,100.00
929.00,99.23
928.00,97.85
927.00,97.46
926.00,97.87
925.00,97.69
924.00,97.14
923.00,97.38
922.00,97.89
921.00,97.28
920.00,96.40
919.00,97.19
918.00,99.03
917.00,99.75
916.00,99.46
915.00,99.74
914.00,100.13
913.00,99.00
912.00,97.80
911.00,99.10
910.00,101.57
909.00,101.99
908.00,101.39
907.00,103.16
906.00,105.86
905.00,105.34
904.00,102.74
903.00,102.18
902.00,102.95
901.00,101.35
900.00,98.97
899.00,100.77
898.00,104.99
897.00,105.59
896.00,103.71
895.00,105.14
894.00,107.60
893.00,104.71
892.00,100.38
891.00,102.13
890.00,105.51
889.00,100.35
888.00,90.82
887.00,89.29
886.00,94.09
885.00,91.41
884.00,88.16
883.00,101.31
882.00,117.49
881.00,112.85
880.00,97.47
879.00,101.69
878.00,115.87
877.00,109.06
876.00,93.26
875.00,96.20
874.00,107.85
873.00,101.95
872.00,93.91
871.00,104.17
870.00,123.15
869.00,102.04
868.00,47.48
867.00,78.45
866.00,132.81
865.00,79.96
864.00,28.75
863.00,50.93
862.00,144.01
861.00,174.94
860.00,257.53
859.00,569.33
858.00,339.76
857.00,138.03
856.00,47.78
855.00,73.96
854.00,160.49
853.00,101.36
852.00,43.94
851.00,167.75
850.00,635.09
849.00,856.95
848.00,97.06
847.00,111.76
846.00,203.07
845.00,96.82
844.00,19.06
843.00,93.98
842.00,218.84
841.00,172.91
840.00,-15.29
839.00,244.88
838.00,1355.44
837.00,279.42
836.00,90.94
835.00,295.24
834.00,440.92
833.00,178.82
832.00,21.01
831.00,94.55
830.00,156.19
829.00,87.49
828.00,77.36
827.00,425.87
826.00,438.17
825.00,270.04
824.00,73.67
823.00,116.52
822.00,261.95
821.00,272.43
820.00,78.23
819.00,274.25
818.00,512.84
817.00,148.12
816.00,30.44
815.00,41.75
814.00,95.11
813.00,89.22
812.00,61.11
811.00,43.03
810.00,100.50
809.00,69.98
808.00,35.23
807.00,107.44
806.00,282.86
805.00,168.21
804.00,57.63
803.00,84.74
802.00,147.86
801.00,44.26
800.00,55.68
799.00,66.58
798.00,55.03
797.00,28.62
796.00,28.40
795.00,52.11
794.00,206.37
793.00,140.65
792.00,38.95
791.00,167.14
790.00,461.54
789.00,196.33
788.00,53.46
787.00,157.96
786.00,451.90
785.00,263.86
784.00,143.04
783.00,141.29
782.00,215.17
781.00,242.22
780.00,306.43
779.00,439.90
778.00,324.51
777.00,680.88
776.00,310.12
775.00,272.64
774.00,263.45
773.00,95.81
772.00,45.66
771.00,23.53
770.00,156.08
769.00,107.07
768.00,-10.83
767.00,128.93
766.00,548.31
765.00,89.03
764.00,31.71
763.00,57.79
762.00,135.43
761.00,79.36
760.00,-10.27
759.00,164.19
758.00,579.00
757.00,203.44
756.00,65.34
755.00,223.46
754.00,321.04
753.00,305.69
752.00,80.90
751.00,353.36
750.00,1089.92
749.00,318.11
748.00,81.00
747.00,191.12
746.00,357.17
745.00,231.25
744.00,63.09
743.00,274.10
742.00,560.23
741.00,359.63
740.00,118.50
739.00,184.44
738.00,187.54
737.00,87.66
736.00,71.57
735.00,156.78
734.00,440.47
733.00,183.29
732.00,35.24
731.00,187.80
730.00,597.70
729.00,196.52
728.00,64.82
727.00,124.40
726.00,152.16
725.00,79.61
724.00,17.28
723.00,76.36
722.00,181.71
721.00,59.47
720.00,73.56
719.00,64.78
718.00,168.85
717.00,84.21
716.00,26.56
715.00,96.45
714.00,283.73
713.00,147.91
712.00,92.75
711.00,444.84
710.00,267.80
709.00,181.10
708.00,265.14
707.00,1070.01
706.00,736.61
705.00,791.15
704.00,119.18
703.00,90.38
702.00,220.15
701.00,86.23
700.00,58.56
699.00,191.98
698.00,510.15
697.00,264.33
696.00,12.93
695.00,74.09
694.00,236.50
693.00,78.39
692.00,9.77
691.00,87.42
690.00,214.14
689.00,178.34
688.00,43.23
687.00,167.34
686.00,371.93
685.00,154.46
684.00,29.64
683.00,152.40
682.00,465.88
681.00,199.84
680.00,130.68
679.00,109.24
678.00,82.76
677.00,60.94
676.00,55.94
675.00,81.11
674.00,237.90
673.00,201.03
672.00,50.09
671.00,132.19
670.00,717.86
669.00,328.54
668.00,71.26
667.00,149.10
666.00,220.24
665.00,106.11
664.00,17.65
663.00,85.27
662.00,174.97
661.00,89.54
660.00,50.26
659.00,81.37
658.00,183.57
657.00,186.65
656.00,189.02
655.00,303.92
654.00,258.23
653.00,109.82
652.00,31.65
651.00,65.17
650.00,146.21
649.00,59.68
648.00,19.60
647.00,95.38
646.00,452.98
645.00,213.53
644.00,16.21
643.00,105.81
642.00,198.68
641.00,52.84
640.00,14.08
639.00,147.15
638.00,413.09
637.00,235.74
636.00,37.73
635.00,192.30
634.00,661.97
633.00,120.34
632.00,103.75
631.00,280.01
630.00,653.77
629.00,229.50
628.00,104.67
627.00,184.50
626.00,349.17
625.00,144.85
624.00,29.34
623.00,88.30
622.00,152.83
621.00,47.72
620.00,48.93
619.00,89.51
618.00,147.68
617.00,82.89
616.00,50.93
615.00,68.23
614.00,99.48
613.00,44.57
612.00,18.36
611.00,215.42
610.00,1061.90
609.00,320.08
608.00,50.66
607.00,171.25
606.00,404.46
605.00,191.82
604.00,33.95
603.00,78.14
602.00,267.97
601.00,134.79
600.00,60.15
599.00,178.17
598.00,313.94
597.00,112.27
596.00,17.73
595.00,44.77
594.00,81.06
593.00,47.09
592.00,17.13
591.00,111.58
590.00,248.84
589.00,96.77
588.00,15.56
587.00,52.79
586.00,110.78
585.00,76.58
584.00,28.89
583.00,119.62
582.00,272.25
581.00,130.50
580.00,39.92
579.00,256.33
578.00,171.48
577.00,68.16
576.00,118.43
575.00,123.23
574.00,254.40
573.00,109.03
572.00,26.84
571.00,95.03
570.00,107.55
569.00,122.52
568.00,-65.77
567.00,217.31
566.00,4014.28
565.00,339.53
564.00,-65.85
563.00,217.76
562.00,665.91
561.00,565.79
560.00,121.14
559.00,370.51
558.00,321.36
557.00,514.73
556.00,270.02
555.00,511.73
554.00,244.11
553.00,190.23
552.00,243.23
551.00,126.00
550.00,83.30
549.00,67.90
548.00,235.57
547.00,294.99
546.00,303.34
545.00,189.91
544.00,22.83
543.00,143.95
542.00,387.16
541.00,220.02
540.00,238.43
539.00,171.13
538.00,139.71
537.00,202.20
536.00,87.67
535.00,106.95
534.00,174.50
533.00,82.95
532.00,30.03
531.00,110.60
530.00,554.19
529.00,325.50
528.00,65.98
527.00,110.36
526.00,215.53
525.00,77.94
524.00,71.05
523.00,653.76
522.00,243.92
521.00,94.00
520.00,58.82
519.00,63.19
518.00,162.25
517.00,109.99
516.00,59.25
515.00,142.84
514.00,327.90
513.00,184.02
512.00,216.33
511.00,242.94
510.00,370.49
509.00,221.65
508.00,37.00
507.00,126.78
506.00,218.74
505.00,121.82
504.00,126.63
503.00,1178.50
502.00,444.39
501.00,447.92
500.00,244.24
499.00,435.89
498.00,845.28
497.00,192.00
496.00,32.85
495.00,104.02
494.00,241.74
493.00,67.75
492.00,14.27
491.00,55.36
490.00,212.84
489.00,87.10
488.00,16.96
487.00,101.25
486.00,236.67
485.00,182.56
484.00,117.66
483.00,299.34
482.00,509.74
481.00,198.73
480.00,64.67
479.00,166.91
478.00,322.18
477.00,184.47
476.00,118.91
475.00,322.73
474.00,873.82
473.00,328.58
472.00,131.00
471.00,286.50
470.00,518.07
469.00,398.19
468.00,50.95
467.00,199.99
466.00,649.73
465.00,259.45
464.00,78.36
463.00,150.41
462.00,159.60
461.00,96.75
460.00,67.53
459.00,257.78
458.00,574.39
457.00,213.48
456.00,96.74
455.00,134.52
454.00,184.62
453.00,117.83
452.00,70.59
451.00,230.46
450.00,916.42
