Created as New Dataset,Sample 008 By Administrator Date Thursday, October 16 2025
cm-1,%T
4000.00,97.33
3999.00,97.32
3998.00,97.31
3997.00,97.29
3996.00,97.28
3995.00,97.29
3994.00,97.32
3993.00,97.33
3992.00,97.33
3991.00,97.32
3990.00,97.34
3989.00,97.36
3988.00,97.37
3987.00,97.35
3986.00,97.32
3985.00,97.29
3984.00,97.28
3983.00,97.28
3982.00,97.30
3981.00,97.33
3980.00,97.36
3979.00,97.37
3978.00,97.35
3977.00,97.31
3976.00,97.28
3975.00,97.26
3974.00,97.27
3973.00,97.30
3972.00,97.33
3971.00,97.35
3970.00,97.35
3969.00,97.36
3968.00,97.37
3967.00,97.38
3966.00,97.37
3965.00,97.33
3964.00,97.28
3963.00,97.26
3962.00,97.29
3961.00,97.34
3960.00,97.37
3959.00,97.36
3958.00,97.33
3957.00,97.31
3956.00,97.31
3955.00,97.32
3954.00,97.33
3953.00,97.34
3952.00,97.34
3951.00,97.32
3950.00,97.32
3949.00,97.36
3948.00,97.47
3947.00,97.58
3946.00,97.61
3945.00,97.52
3944.00,97.41
3943.00,97.39
3942.00,97.47
3941.00,97.54
3940.00,97.52
3939.00,97.46
3938.00,97.43
3937.00,97.45
3936.00,97.45
3935.00,97.40
3934.00,97.30
3933.00,97.23
3932.00,97.21
3931.00,97.25
3930.00,97.37
3929.00,97.49
3928.00,97.54
3927.00,97.46
3926.00,97.33
3925.00,97.33
3924.00,97.50
3923.00,97.74
3922.00,97.88
3921.00,97.84
3920.00,97.65
3919.00,97.40
3918.00,97.22
3917.00,97.20
3916.00,97.32
3915.00,97.47
3914.00,97.53
3913.00,97.49
3912.00,97.45
3911.00,97.49
3910.00,97.59
3909.00,97.68
3908.00,97.74
3907.00,97.84
3906.00,98.04
3905.00,98.30
3904.00,98.49
3903.00,98.51
3902.00,98.35
3901.00,98.08
3900.00,97.83
3899.00,97.70
3898.00,97.71
3897.00,97.76
3896.00,97.78
3895.00,97.77
3894.00,97.81
3893.00,97.95
3892.00,98.12
3891.00,98.23
3890.00,98.24
3889.00,98.14
3888.00,97.99
3887.00,97.87
3886.00,97.87
3885.00,97.93
3884.00,97.91
3883.00,97.70
3882.00,97.38
3881.00,97.22
3880.00,97.43
3879.00,97.83
3878.00,98.09
3877.00,98.01
3876.00,97.75
3875.00,97.63
3874.00,97.83
3873.00,98.20
3872.00,98.49
3871.00,98.59
3870.00,98.55
3869.00,98.53
3868.00,98.53
3867.00,98.46
3866.00,98.32
3865.00,98.18
3864.00,98.11
3863.00,98.12
3862.00,98.15
3861.00,98.14
3860.00,98.02
3859.00,97.72
3858.00,97.20
3857.00,96.65
3856.00,96.42
3855.00,96.65
3854.00,96.90
3853.00,96.93
3852.00,96.98
3851.00,97.14
3850.00,97.32
3849.00,97.50
3848.00,97.67
3847.00,97.74
3846.00,97.72
3845.00,97.74
3844.00,97.93
3843.00,98.16
3842.00,98.28
3841.00,98.33
3840.00,98.46
3839.00,98.68
3838.00,98.77
3837.00,98.67
3836.00,98.56
3835.00,98.53
3834.00,98.53
3833.00,98.46
3832.00,98.30
3831.00,98.10
3830.00,97.88
3829.00,97.63
3828.00,97.45
3827.00,97.45
3826.00,97.68
3825.00,98.02
3824.00,98.34
3823.00,98.57
3822.00,98.59
3821.00,98.45
3820.00,98.30
3819.00,98.20
3818.00,98.07
3817.00,97.86
3816.00,97.59
3815.00,97.42
3814.00,97.47
3813.00,97.63
3812.00,97.78
3811.00,97.91
3810.00,98.04
3809.00,98.21
3808.00,98.35
3807.00,98.39
3806.00,98.34
3805.00,98.25
3804.00,98.15
3803.00,98.09
3802.00,97.99
3801.00,97.81
3800.00,97.65
3799.00,97.56
3798.00,97.53
3797.00,97.56
3796.00,97.63
3795.00,97.70
3794.00,97.69
3793.00,97.61
3792.00,97.53
3791.00,97.50
3790.00,97.50
3789.00,97.45
3788.00,97.30
3787.00,97.09
3786.00,96.96
3785.00,97.07
3784.00,97.35
3783.00,97.56
3782.00,97.54
3781.00,97.34
3780.00,97.21
3779.00,97.29
3778.00,97.50
3777.00,97.65
3776.00,97.69
3775.00,97.70
3774.00,97.70
3773.00,97.68
3772.00,97.64
3771.00,97.67
3770.00,97.81
3769.00,97.98
3768.00,98.04
3767.00,97.94
3766.00,97.81
3765.00,97.79
3764.00,97.86
3763.00,97.92
3762.00,97.89
3761.00,97.83
3760.00,97.83
3759.00,97.93
3758.00,98.06
3757.00,98.08
3756.00,97.92
3755.00,97.65
3754.00,97.44
3753.00,97.40
3752.00,97.47
3751.00,97.49
3750.00,97.48
3749.00,97.49
3748.00,97.38
3747.00,97.09
3746.00,96.78
3745.00,96.59
3744.00,96.60
3743.00,96.91
3742.00,97.33
3741.00,97.65
3740.00,97.95
3739.00,98.37
3738.00,98.83
3737.00,99.11
3736.00,99.10
3735.00,98.95
3734.00,98.74
3733.00,98.46
3732.00,98.16
3731.00,97.95
3730.00,97.89
3729.00,97.91
3728.00,97.92
3727.00,97.92
3726.00,97.89
3725.00,97.83
3724.00,97.75
3723.00,97.70
3722.00,97.70
3721.00,97.70
3720.00,97.67
3719.00,97.69
3718.00,97.80
3717.00,97.97
3716.00,98.09
3715.00,98.11
3714.00,98.07
3713.00,98.04
3712.00,98.01
3711.00,97.98
3710.00,97.95
3709.00,97.90
3708.00,97.82
3707.00,97.74
3706.00,97.71
3705.00,97.72
3704.00,97.71
3703.00,97.67
3702.00,97.65
3701.00,97.68
3700.00,97.70
3699.00,97.63
3698.00,97.49
3697.00,97.42
3696.00,97.48
3695.00,97.60
3694.00,97.67
3693.00,97.68
3692.00,97.78
3691.00,98.02
3690.00,98.26
3689.00,98.22
3688.00,97.92
3687.00,97.64
3686.00,97.51
3685.00,97.53
3684.00,97.61
3683.00,97.67
3682.00,97.68
3681.00,97.72
3680.00,97.93
3679.00,98.34
3678.00,98.81
3677.00,99.05
3676.00,98.87
3675.00,98.59
3674.00,98.63
3673.00,98.92
3672.00,99.12
3671.00,99.00
3670.00,98.59
3669.00,98.18
3668.00,97.97
3667.00,97.86
3666.00,97.75
3665.00,97.63
3664.00,97.55
3663.00,97.50
3662.00,97.51
3661.00,97.60
3660.00,97.79
3659.00,98.03
3658.00,98.21
3657.00,98.30
3656.00,98.34
3655.00,98.43
3654.00,98.59
3653.00,98.90
3652.00,99.47
3651.00,100.14
3650.00,100.31
3649.00,99.66
3648.00,98.66
3647.00,97.93
3646.00,97.66
3645.00,97.56
3644.00,97.43
3643.00,97.27
3642.00,97.20
3641.00,97.20
3640.00,97.19
3639.00,97.20
3638.00,97.28
3637.00,97.43
3636.00,97.54
3635.00,97.61
3634.00,97.69
3633.00,97.79
3632.00,97.93
3631.00,98.15
3630.00,98.35
3629.00,98.31
3628.00,98.02
3627.00,97.73
3626.00,97.57
3625.00,97.54
3624.00,97.63
3623.00,97.81
3622.00,98.09
3621.00,98.37
3620.00,98.50
3619.00,98.35
3618.00,98.03
3617.00,97.71
3616.00,97.50
3615.00,97.45
3614.00,97.61
3613.00,97.88
3612.00,98.06
3611.00,97.99
3610.00,97.72
3609.00,97.42
3608.00,97.29
3607.00,97.32
3606.00,97.40
3605.00,97.38
3604.00,97.17
3603.00,96.85
3602.00,96.59
3601.00,96.53
3600.00,96.67
3599.00,96.91
3598.00,97.13
3597.00,97.30
3596.00,97.39
3595.00,97.44
3594.00,97.49
3593.00,97.57
3592.00,97.62
3591.00,97.57
3590.00,97.42
3589.00,97.32
3588.00,97.34
3587.00,97.45
3586.00,97.52
3585.00,97.49
3584.00,97.37
3583.00,97.24
3582.00,97.16
3581.00,97.12
3580.00,97.08
3579.00,97.04
3578.00,96.99
3577.00,96.97
3576.00,96.97
3575.00,97.03
3574.00,97.15
3573.00,97.32
3572.00,97.50
3571.00,97.62
3570.00,97.62
3569.00,97.51
3568.00,97.34
3567.00,97.21
3566.00,97.20
3565.00,97.26
3564.00,97.28
3563.00,97.24
3562.00,97.20
3561.00,97.21
3560.00,97.23
3559.00,97.24
3558.00,97.24
3557.00,97.24
3556.00,97.18
3555.00,97.03
3554.00,96.86
3553.00,96.80
3552.00,96.92
3551.00,97.11
3550.00,97.23
3549.00,97.21
3548.00,97.11
3547.00,97.02
3546.00,96.99
3545.00,97.02
3544.00,97.09
3543.00,97.16
3542.00,97.22
3541.00,97.24
3540.00,97.22
3539.00,97.17
3538.00,97.11
3537.00,97.09
3536.00,97.14
3535.00,97.21
3534.00,97.24
3533.00,97.18
3532.00,97.06
3531.00,96.93
3530.00,96.83
3529.00,96.81
3528.00,96.88
3527.00,97.00
3526.00,97.07
3525.00,97.05
3524.00,97.00
3523.00,97.01
3522.00,97.08
3521.00,97.14
3520.00,97.14
3519.00,97.12
3518.00,97.12
3517.00,97.15
3516.00,97.15
3515.00,97.13
3514.00,97.08
3513.00,97.03
3512.00,96.96
3511.00,96.90
3510.00,96.92
3509.00,97.02
3508.00,97.13
3507.00,97.13
3506.00,97.00
3505.00,96.85
3504.00,96.80
3503.00,96.89
3502.00,97.06
3501.00,97.18
3500.00,97.19
3499.00,97.12
3498.00,97.02
3497.00,96.97
3496.00,96.99
3495.00,97.05
3494.00,97.10
3493.00,97.12
3492.00,97.10
3491.00,97.05
3490.00,97.00
3489.00,96.96
3488.00,96.98
3487.00,97.04
3486.00,97.08
3485.00,97.04
3484.00,96.95
3483.00,96.87
3482.00,96.88
3481.00,96.97
3480.00,97.07
3479.00,97.12
3478.00,97.09
3477.00,97.03
3476.00,96.99
3475.00,96.98
3474.00,97.01
3473.00,97.04
3472.00,97.05
3471.00,97.05
3470.00,97.03
3469.00,97.02
3468.00,97.01
3467.00,97.02
3466.00,97.02
3465.00,97.01
3464.00,96.97
3463.00,96.94
3462.00,96.96
3461.00,97.01
3460.00,97.05
3459.00,97.06
3458.00,97.05
3457.00,97.03
3456.00,97.03
3455.00,97.04
3454.00,97.04
3453.00,97.06
3452.00,97.06
3451.00,97.02
3450.00,96.93
3449.00,96.80
3448.00,96.73
3447.00,96.78
3446.00,96.90
3445.00,96.99
3444.00,96.98
3443.00,96.95
3442.00,96.97
3441.00,97.02
3440.00,97.06
3439.00,97.05
3438.00,97.04
3437.00,97.03
3436.00,97.03
3435.00,97.02
3434.00,97.01
3433.00,97.00
3432.00,96.99
3431.00,96.99
3430.00,96.99
3429.00,97.01
3428.00,97.01
3427.00,97.02
3426.00,97.02
3425.00,97.02
3424.00,96.97
3423.00,96.91
3422.00,96.87
3421.00,96.88
3420.00,96.94
3419.00,97.00
3418.00,97.03
3417.00,97.04
3416.00,97.03
3415.00,97.02
3414.00,97.02
3413.00,97.02
3412.00,97.01
3411.00,97.00
3410.00,97.00
3409.00,97.01
3408.00,97.01
3407.00,97.01
3406.00,97.01
3405.00,97.00
3404.00,97.00
3403.00,97.00
3402.00,97.01
3401.00,97.02
3400.00,97.01
3399.00,96.98
3398.00,96.97
3397.00,96.98
3396.00,96.99
3395.00,96.97
3394.00,96.94
3393.00,96.93
3392.00,96.97
3391.00,97.01
3390.00,97.04
3389.00,97.03
3388.00,97.01
3387.00,96.98
3386.00,96.97
3385.00,96.98
3384.00,97.01
3383.00,97.03
3382.00,97.04
3381.00,97.04
3380.00,97.03
3379.00,97.03
3378.00,97.03
3377.00,97.03
3376.00,97.04
3375.00,97.04
3374.00,97.04
3373.00,97.05
3372.00,97.05
3371.00,97.05
3370.00,97.03
3369.00,97.01
3368.00,96.98
3367.00,96.95
3366.00,96.95
3365.00,96.98
3364.00,97.00
3363.00,97.02
3362.00,97.03
3361.00,97.04
3360.00,97.05
3359.00,97.05
3358.00,97.05
3357.00,97.05
3356.00,97.05
3355.00,97.06
3354.00,97.07
3353.00,97.08
3352.00,97.08
3351.00,97.08
3350.00,97.08
3349.00,97.08
3348.00,97.08
3347.00,97.09
3346.00,97.09
3345.00,97.10
3344.00,97.10
3343.00,97.10
3342.00,97.10
3341.00,97.10
3340.00,97.10
3339.00,97.08
3338.00,97.07
3337.00,97.07
3336.00,97.09
3335.00,97.11
3334.00,97.13
3333.00,97.13
3332.00,97.13
3331.00,97.11
3330.00,97.11
3329.00,97.10
3328.00,97.10
3327.00,97.10
3326.00,97.10
3325.00,97.11
3324.00,97.12
3323.00,97.13
3322.00,97.14
3321.00,97.15
3320.00,97.15
3319.00,97.14
3318.00,97.14
3317.00,97.14
3316.00,97.12
3315.00,97.11
3314.00,97.10
3313.00,97.10
3312.00,97.11
3311.00,97.10
3310.00,97.10
3309.00,97.10
3308.00,97.13
3307.00,97.16
3306.00,97.18
3305.00,97.18
3304.00,97.17
3303.00,97.17
3302.00,97.17
3301.00,97.16
3300.00,97.15
3299.00,97.14
3298.00,97.15
3297.00,97.16
3296.00,97.18
3295.00,97.17
3294.00,97.15
3293.00,97.14
3292.00,97.14
3291.00,97.15
3290.00,97.16
3289.00,97.17
3288.00,97.18
3287.00,97.19
3286.00,97.20
3285.00,97.20
3284.00,97.20
3283.00,97.20
3282.00,97.20
3281.00,97.20
3280.00,97.19
3279.00,97.17
3278.00,97.15
3277.00,97.13
3276.00,97.11
3275.00,97.11
3274.00,97.13
3273.00,97.17
3272.00,97.20
3271.00,97.23
3270.00,97.24
3269.00,97.23
3268.00,97.23
3267.00,97.22
3266.00,97.21
3265.00,97.22
3264.00,97.23
3263.00,97.24
3262.00,97.24
3261.00,97.24
3260.00,97.24
3259.00,97.23
3258.00,97.22
3257.00,97.20
3256.00,97.18
3255.00,97.18
3254.00,97.19
3253.00,97.23
3252.00,97.25
3251.00,97.26
3250.00,97.26
3249.00,97.25
3248.00,97.23
3247.00,97.19
3246.00,97.16
3245.00,97.17
3244.00,97.21
3243.00,97.25
3242.00,97.27
3241.00,97.27
3240.00,97.27
3239.00,97.26
3238.00,97.26
3237.00,97.25
3236.00,97.26
3235.00,97.26
3234.00,97.26
3233.00,97.26
3232.00,97.26
3231.00,97.26
3230.00,97.26
3229.00,97.26
3228.00,97.27
3227.00,97.29
3226.00,97.31
3225.00,97.32
3224.00,97.31
3223.00,97.29
3222.00,97.27
3221.00,97.25
3220.00,97.26
3219.00,97.28
3218.00,97.30
3217.00,97.29
3216.00,97.26
3215.00,97.24
3214.00,97.26
3213.00,97.28
3212.00,97.29
3211.00,97.28
3210.00,97.28
3209.00,97.31
3208.00,97.34
3207.00,97.36
3206.00,97.37
3205.00,97.37
3204.00,97.37
3203.00,97.37
3202.00,97.37
3201.00,97.35
3200.00,97.32
3199.00,97.30
3198.00,97.29
3197.00,97.32
3196.00,97.36
3195.00,97.39
3194.00,97.40
3193.00,97.41
3192.00,97.41
3191.00,97.42
3190.00,97.42
3189.00,97.41
3188.00,97.40
3187.00,97.38
3186.00,97.37
3185.00,97.38
3184.00,97.40
3183.00,97.42
3182.00,97.42
3181.00,97.39
3180.00,97.34
3179.00,97.32
3178.00,97.34
3177.00,97.39
3176.00,97.43
3175.00,97.45
3174.00,97.45
3173.00,97.44
3172.00,97.44
3171.00,97.44
3170.00,97.45
3169.00,97.45
3168.00,97.46
3167.00,97.46
3166.00,97.46
3165.00,97.46
3164.00,97.47
3163.00,97.48
3162.00,97.48
3161.00,97.49
3160.00,97.49
3159.00,97.49
3158.00,97.49
3157.00,97.49
3156.00,97.49
3155.00,97.49
3154.00,97.49
3153.00,97.49
3152.00,97.50
3151.00,97.51
3150.00,97.51
3149.00,97.51
3148.00,97.51
3147.00,97.50
3146.00,97.50
3145.00,97.50
3144.00,97.51
3143.00,97.51
3142.00,97.52
3141.00,97.52
3140.00,97.53
3139.00,97.53
3138.00,97.54
3137.00,97.53
3136.00,97.51
3135.00,97.47
3134.00,97.45
3133.00,97.46
3132.00,97.50
3131.00,97.54
3130.00,97.55
3129.00,97.53
3128.00,97.51
3127.00,97.51
3126.00,97.50
3125.00,97.49
3124.00,97.48
3123.00,97.47
3122.00,97.48
3121.00,97.49
3120.00,97.49
3119.00,97.47
3118.00,97.46
3117.00,97.46
3116.00,97.48
3115.00,97.52
3114.00,97.54
3113.00,97.56
3112.00,97.56
3111.00,97.56
3110.00,97.56
3109.00,97.57
3108.00,97.58
3107.00,97.59
3106.00,97.58
3105.00,97.57
3104.00,97.54
3103.00,97.50
3102.00,97.49
3101.00,97.51
3100.00,97.55
3099.00,97.57
3098.00,97.56
3097.00,97.54
3096.00,97.54
3095.00,97.57
3094.00,97.60
3093.00,97.63
3092.00,97.64
3091.00,97.64
3090.00,97.63
3089.00,97.63
3088.00,97.63
3087.00,97.63
3086.00,97.63
3085.00,97.62
3084.00,97.60
3083.00,97.58
3082.00,97.56
3081.00,97.55
3080.00,97.56
3079.00,97.59
3078.00,97.62
3077.00,97.65
3076.00,97.66
3075.00,97.67
3074.00,97.67
3073.00,97.67
3072.00,97.67
3071.00,97.66
3070.00,97.64
3069.00,97.62
3068.00,97.59
3067.00,97.56
3066.00,97.56
3065.00,97.58
3064.00,97.62
3063.00,97.65
3062.00,97.67
3061.00,97.67
3060.00,97.66
3059.00,97.64
3058.00,97.62
3057.00,97.62
3056.00,97.63
3055.00,97.67
3054.00,97.69
3053.00,97.70
3052.00,97.68
3051.00,97.66
3050.00,97.65
3049.00,97.66
3048.00,97.67
3047.00,97.69
3046.00,97.70
3045.00,97.70
3044.00,97.70
3043.00,97.70
3042.00,97.70
3041.00,97.70
3040.00,97.71
3039.00,97.71
3038.00,97.70
3037.00,97.68
3036.00,97.67
3035.00,97.65
3034.00,97.63
3033.00,97.61
3032.00,97.60
3031.00,97.63
3030.00,97.68
3029.00,97.72
3028.00,97.72
3027.00,97.71
3026.00,97.70
3025.00,97.70
3024.00,97.71
3023.00,97.72
3022.00,97.73
3021.00,97.74
3020.00,97.75
3019.00,97.76
3018.00,97.76
3017.00,97.75
3016.00,97.73
3015.00,97.71
3014.00,97.69
3013.00,97.68
3012.00,97.68
3011.00,97.70
3010.00,97.72
3009.00,97.74
3008.00,97.75
3007.00,97.75
3006.00,97.74
3005.00,97.74
3004.00,97.74
3003.00,97.75
3002.00,97.77
3001.00,97.77
3000.00,97.78
2999.00,97.78
2998.00,97.78
2997.00,97.77
2996.00,97.76
2995.00,97.75
2994.00,97.75
2993.00,97.76
2992.00,97.76
2991.00,97.76
2990.00,97.76
2989.00,97.76
2988.00,97.76
2987.00,97.76
2986.00,97.77
2985.00,97.78
2984.00,97.78
2983.00,97.78
2982.00,97.79
2981.00,97.79
2980.00,97.79
2979.00,97.79
2978.00,97.79
2977.00,97.79
2976.00,97.78
2975.00,97.78
2974.00,97.79
2973.00,97.80
2972.00,97.80
2971.00,97.80
2970.00,97.80
2969.00,97.80
2968.00,97.80
2967.00,97.80
2966.00,97.80
2965.00,97.80
2964.00,97.81
2963.00,97.81
2962.00,97.81
2961.00,97.82
2960.00,97.82
2959.00,97.82
2958.00,97.81
2957.00,97.81
2956.00,97.80
2955.00,97.80
2954.00,97.80
2953.00,97.81
2952.00,97.82
2951.00,97.82
2950.00,97.83
2949.00,97.83
2948.00,97.82
2947.00,97.82
2946.00,97.82
2945.00,97.82
2944.00,97.83
2943.00,97.83
2942.00,97.83
2941.00,97.83
2940.00,97.84
2939.00,97.85
2938.00,97.86
2937.00,97.86
2936.00,97.86
2935.00,97.86
2934.00,97.86
2933.00,97.86
2932.00,97.87
2931.00,97.87
2930.00,97.87
2929.00,97.88
2928.00,97.88
2927.00,97.87
2926.00,97.87
2925.00,97.87
2924.00,97.87
2923.00,97.87
2922.00,97.86
2921.00,97.85
2920.00,97.84
2919.00,97.83
2918.00,97.82
2917.00,97.81
2916.00,97.81
2915.00,97.81
2914.00,97.81
2913.00,97.82
2912.00,97.82
2911.00,97.83
2910.00,97.83
2909.00,97.84
2908.00,97.84
2907.00,97.85
2906.00,97.84
2905.00,97.84
2904.00,97.84
2903.00,97.84
2902.00,97.84
2901.00,97.85
2900.00,97.85
2899.00,97.85
2898.00,97.86
2897.00,97.86
2896.00,97.86
2895.00,97.86
2894.00,97.86
2893.00,97.86
2892.00,97.86
2891.00,97.86
2890.00,97.86
2889.00,97.86
2888.00,97.87
2887.00,97.87
2886.00,97.88
2885.00,97.88
2884.00,97.88
2883.00,97.88
2882.00,97.88
2881.00,97.88
2880.00,97.89
2879.00,97.89
2878.00,97.89
2877.00,97.89
2876.00,97.88
2875.00,97.88
2874.00,97.88
2873.00,97.88
2872.00,97.88
2871.00,97.88
2870.00,97.88
2869.00,97.88
2868.00,97.88
2867.00,97.88
2866.00,97.88
2865.00,97.88
2864.00,97.89
2863.00,97.89
2862.00,97.90
2861.00,97.90
2860.00,97.90
2859.00,97.90
2858.00,97.90
2857.00,97.90
2856.00,97.91
2855.00,97.90
2854.00,97.90
2853.00,97.90
2852.00,97.89
2851.00,97.88
2850.00,97.88
2849.00,97.87
2848.00,97.88
2847.00,97.88
2846.00,97.89
2845.00,97.89
2844.00,97.89
2843.00,97.88
2842.00,97.88
2841.00,97.88
2840.00,97.89
2839.00,97.89
2838.00,97.90
2837.00,97.90
2836.00,97.91
2835.00,97.92
2834.00,97.93
2833.00,97.93
2832.00,97.93
2831.00,97.92
2830.00,97.92
2829.00,97.92
2828.00,97.91
2827.00,97.91
2826.00,97.91
2825.00,97.91
2824.00,97.91
2823.00,97.91
2822.00,97.91
2821.00,97.92
2820.00,97.92
2819.00,97.92
2818.00,97.92
2817.00,97.92
2816.00,97.92
2815.00,97.92
2814.00,97.92
2813.00,97.91
2812.00,97.91
2811.00,97.92
2810.00,97.92
2809.00,97.93
2808.00,97.93
2807.00,97.93
2806.00,97.94
2805.00,97.93
2804.00,97.93
2803.00,97.93
2802.00,97.92
2801.00,97.92
2800.00,97.93
2799.00,97.93
2798.00,97.93
2797.00,97.93
2796.00,97.94
2795.00,97.93
2794.00,97.93
2793.00,97.93
2792.00,97.93
2791.00,97.93
2790.00,97.93
2789.00,97.93
2788.00,97.94
2787.00,97.94
2786.00,97.94
2785.00,97.94
2784.00,97.94
2783.00,97.93
2782.00,97.93
2781.00,97.93
2780.00,97.93
2779.00,97.93
2778.00,97.93
2777.00,97.94
2776.00,97.94
2775.00,97.94
2774.00,97.95
2773.00,97.95
2772.00,97.95
2771.00,97.95
2770.00,97.95
2769.00,97.95
2768.00,97.95
2767.00,97.95
2766.00,97.96
2765.00,97.96
2764.00,97.96
2763.00,97.95
2762.00,97.96
2761.00,97.96
2760.00,97.96
2759.00,97.96
2758.00,97.95
2757.00,97.95
2756.00,97.95
2755.00,97.94
2754.00,97.94
2753.00,97.94
2752.00,97.95
2751.00,97.95
2750.00,97.95
2749.00,97.96
2748.00,97.96
2747.00,97.96
2746.00,97.96
2745.00,97.96
2744.00,97.96
2743.00,97.95
2742.00,97.95
2741.00,97.95
2740.00,97.95
2739.00,97.96
2738.00,97.96
2737.00,97.96
2736.00,97.96
2735.00,97.96
2734.00,97.96
2733.00,97.96
2732.00,97.97
2731.00,97.97
2730.00,97.96
2729.00,97.96
2728.00,97.96
2727.00,97.96
2726.00,97.96
2725.00,97.96
2724.00,97.97
2723.00,97.97
2722.00,97.96
2721.00,97.96
2720.00,97.96
2719.00,97.96
2718.00,97.96
2717.00,97.96
2716.00,97.96
2715.00,97.96
2714.00,97.97
2713.00,97.97
2712.00,97.98
2711.00,97.98
2710.00,97.98
2709.00,97.98
2708.00,97.98
2707.00,97.98
2706.00,97.98
2705.00,97.98
2704.00,97.98
2703.00,97.99
2702.00,97.99
2701.00,97.99
2700.00,97.99
2699.00,97.98
2698.00,97.98
2697.00,97.98
2696.00,97.98
2695.00,97.98
2694.00,97.98
2693.00,97.99
2692.00,98.00
2691.00,98.00
2690.00,97.99
2689.00,97.99
2688.00,97.98
2687.00,97.98
2686.00,97.98
2685.00,97.98
2684.00,97.99
2683.00,97.99
2682.00,97.99
2681.00,97.99
2680.00,97.99
2679.00,97.99
2678.00,97.99
2677.00,98.00
2676.00,98.00
2675.00,98.00
2674.00,97.99
2673.00,97.99
2672.00,97.99
2671.00,97.99
2670.00,98.00
2669.00,98.00
2668.00,97.99
2667.00,97.99
2666.00,97.99
2665.00,97.99
2664.00,97.99
2663.00,97.99
2662.00,98.00
2661.00,98.00
2660.00,98.00
2659.00,98.00
2658.00,98.00
2657.00,98.01
2656.00,98.00
2655.00,98.00
2654.00,98.00
2653.00,98.00
2652.00,98.00
2651.00,98.00
2650.00,98.01
2649.00,98.00
2648.00,98.00
2647.00,98.00
2646.00,98.00
2645.00,98.00
2644.00,98.01
2643.00,98.01
2642.00,98.01
2641.00,98.01
2640.00,98.01
2639.00,98.00
2638.00,98.00
2637.00,98.01
2636.00,98.01
2635.00,98.01
2634.00,98.01
2633.00,98.02
2632.00,98.02
2631.00,98.02
2630.00,98.02
2629.00,98.02
2628.00,98.02
2627.00,98.02
2626.00,98.02
2625.00,98.02
2624.00,98.02
2623.00,98.01
2622.00,98.01
2621.00,98.01
2620.00,98.02
2619.00,98.02
2618.00,98.02
2617.00,98.02
2616.00,98.02
2615.00,98.02
2614.00,98.02
2613.00,98.02
2612.00,98.03
2611.00,98.03
2610.00,98.03
2609.00,98.03
2608.00,98.03
2607.00,98.03
2606.00,98.03
2605.00,98.03
2604.00,98.02
2603.00,98.02
2602.00,98.03
2601.00,98.03
2600.00,98.04
2599.00,98.04
2598.00,98.04
2597.00,98.04
2596.00,98.04
2595.00,98.04
2594.00,98.03
2593.00,98.03
2592.00,98.03
2591.00,98.02
2590.00,98.02
2589.00,98.03
2588.00,98.03
2587.00,98.03
2586.00,98.03
2585.00,98.03
2584.00,98.03
2583.00,98.03
2582.00,98.03
2581.00,98.03
2580.00,98.04
2579.00,98.04
2578.00,98.04
2577.00,98.04
2576.00,98.04
2575.00,98.04
2574.00,98.04
2573.00,98.04
2572.00,98.04
2571.00,98.04
2570.00,98.03
2569.00,98.04
2568.00,98.04
2567.00,98.04
2566.00,98.04
2565.00,98.04
2564.00,98.04
2563.00,98.04
2562.00,98.04
2561.00,98.05
2560.00,98.06
2559.00,98.05
2558.00,98.05
2557.00,98.05
2556.00,98.05
2555.00,98.05
2554.00,98.05
2553.00,98.05
2552.00,98.05
2551.00,98.05
2550.00,98.05
2549.00,98.06
2548.00,98.06
2547.00,98.07
2546.00,98.06
2545.00,98.06
2544.00,98.06
2543.00,98.05
2542.00,98.05
2541.00,98.06
2540.00,98.06
2539.00,98.06
2538.00,98.06
2537.00,98.06
2536.00,98.06
2535.00,98.05
2534.00,98.06
2533.00,98.06
2532.00,98.06
2531.00,98.07
2530.00,98.07
2529.00,98.07
2528.00,98.07
2527.00,98.07
2526.00,98.07
2525.00,98.07
2524.00,98.07
2523.00,98.07
2522.00,98.07
2521.00,98.07
2520.00,98.07
2519.00,98.07
2518.00,98.07
2517.00,98.07
2516.00,98.06
2515.00,98.06
2514.00,98.06
2513.00,98.07
2512.00,98.07
2511.00,98.07
2510.00,98.07
2509.00,98.07
2508.00,98.07
2507.00,98.07
2506.00,98.07
2505.00,98.07
2504.00,98.07
2503.00,98.08
2502.00,98.08
2501.00,98.08
2500.00,98.07
2499.00,98.07
2498.00,98.07
2497.00,98.07
2496.00,98.08
2495.00,98.08
2494.00,98.08
2493.00,98.08
2492.00,98.08
2491.00,98.08
2490.00,98.08
2489.00,98.08
2488.00,98.09
2487.00,98.09
2486.00,98.09
2485.00,98.09
2484.00,98.09
2483.00,98.09
2482.00,98.08
2481.00,98.08
2480.00,98.08
2479.00,98.07
2478.00,98.07
2477.00,98.07
2476.00,98.08
2475.00,98.08
2474.00,98.08
2473.00,98.08
2472.00,98.07
2471.00,98.07
2470.00,98.07
2469.00,98.08
2468.00,98.08
2467.00,98.08
2466.00,98.09
2465.00,98.09
2464.00,98.09
2463.00,98.09
2462.00,98.09
2461.00,98.09
2460.00,98.09
2459.00,98.09
2458.00,98.08
2457.00,98.08
2456.00,98.08
2455.00,98.09
2454.00,98.10
2453.00,98.10
2452.00,98.10
2451.00,98.10
2450.00,98.09
2449.00,98.08
2448.00,98.08
2447.00,98.08
2446.00,98.09
2445.00,98.09
2444.00,98.10
2443.00,98.10
2442.00,98.11
2441.00,98.11
2440.00,98.11
2439.00,98.10
2438.00,98.10
2437.00,98.10
2436.00,98.10
2435.00,98.10
2434.00,98.10
2433.00,98.10
2432.00,98.10
2431.00,98.10
2430.00,98.10
2429.00,98.10
2428.00,98.11
2427.00,98.11
2426.00,98.11
2425.00,98.10
2424.00,98.10
2423.00,98.10
2422.00,98.09
2421.00,98.10
2420.00,98.10
2419.00,98.10
2418.00,98.11
2417.00,98.11
2416.00,98.11
2415.00,98.11
2414.00,98.11
2413.00,98.12
2412.00,98.11
2411.00,98.11
2410.00,98.11
2409.00,98.11
2408.00,98.11
2407.00,98.11
2406.00,98.11
2405.00,98.11
2404.00,98.10
2403.00,98.10
2402.00,98.10
2401.00,98.10
2400.00,98.10
2399.00,98.10
2398.00,98.11
2397.00,98.11
2396.00,98.11
2395.00,98.11
2394.00,98.11
2393.00,98.12
2392.00,98.12
2391.00,98.12
2390.00,98.12
2389.00,98.13
2388.00,98.13
2387.00,98.13
2386.00,98.14
2385.00,98.15
2384.00,98.16
2383.00,98.16
2382.00,98.15
2381.00,98.15
2380.00,98.15
2379.00,98.14
2378.00,98.13
2377.00,98.12
2376.00,98.12
2375.00,98.12
2374.00,98.12
2373.00,98.13
2372.00,98.13
2371.00,98.13
2370.00,98.14
2369.00,98.15
2368.00,98.14
2367.00,98.14
2366.00,98.13
2365.00,98.12
2364.00,98.12
2363.00,98.11
2362.00,98.13
2361.00,98.17
2360.00,98.19
2359.00,98.20
2358.00,98.19
2357.00,98.18
2356.00,98.15
2355.00,98.13
2354.00,98.10
2353.00,98.07
2352.00,98.08
2351.00,98.13
2350.00,98.16
2349.00,98.17
2348.00,98.17
2347.00,98.17
2346.00,98.17
2345.00,98.17
2344.00,98.19
2343.00,98.21
2342.00,98.24
2341.00,98.25
2340.00,98.25
2339.00,98.24
2338.00,98.22
2337.00,98.20
2336.00,98.18
2335.00,98.18
2334.00,98.17
2333.00,98.16
2332.00,98.17
2331.00,98.18
2330.00,98.18
2329.00,98.19
2328.00,98.19
2327.00,98.22
2326.00,98.23
2325.00,98.23
2324.00,98.24
2323.00,98.24
2322.00,98.24
2321.00,98.24
2320.00,98.24
2319.00,98.24
2318.00,98.23
2317.00,98.22
2316.00,98.22
2315.00,98.22
2314.00,98.22
2313.00,98.21
2312.00,98.21
2311.00,98.20
2310.00,98.20
2309.00,98.19
2308.00,98.19
2307.00,98.19
2306.00,98.18
2305.00,98.18
2304.00,98.18
2303.00,98.18
2302.00,98.18
2301.00,98.18
2300.00,98.18
2299.00,98.18
2298.00,98.17
2297.00,98.17
2296.00,98.16
2295.00,98.16
2294.00,98.15
2293.00,98.15
2292.00,98.15
2291.00,98.15
2290.00,98.15
2289.00,98.15
2288.00,98.15
2287.00,98.15
2286.00,98.16
2285.00,98.16
2284.00,98.16
2283.00,98.15
2282.00,98.14
2281.00,98.14
2280.00,98.14
2279.00,98.14
2278.00,98.14
2277.00,98.14
2276.00,98.14
2275.00,98.14
2274.00,98.14
2273.00,98.14
2272.00,98.14
2271.00,98.15
2270.00,98.15
2269.00,98.16
2268.00,98.16
2267.00,98.16
2266.00,98.16
2265.00,98.16
2264.00,98.16
2263.00,98.16
2262.00,98.15
2261.00,98.15
2260.00,98.15
2259.00,98.15
2258.00,98.15
2257.00,98.15
2256.00,98.15
2255.00,98.15
2254.00,98.16
2253.00,98.16
2252.00,98.17
2251.00,98.17
2250.00,98.17
2249.00,98.17
2248.00,98.17
2247.00,98.16
2246.00,98.16
2245.00,98.16
2244.00,98.16
2243.00,98.16
2242.00,98.16
2241.00,98.17
2240.00,98.17
2239.00,98.17
2238.00,98.17
2237.00,98.17
2236.00,98.18
2235.00,98.18
2234.00,98.17
2233.00,98.17
2232.00,98.17
2231.00,98.17
2230.00,98.17
2229.00,98.17
2228.00,98.17
2227.00,98.17
2226.00,98.17
2225.00,98.16
2224.00,98.16
2223.00,98.16
2222.00,98.17
2221.00,98.17
2220.00,98.18
2219.00,98.18
2218.00,98.18
2217.00,98.18
2216.00,98.18
2215.00,98.18
2214.00,98.17
2213.00,98.17
2212.00,98.16
2211.00,98.16
2210.00,98.16
2209.00,98.17
2208.00,98.17
2207.00,98.18
2206.00,98.18
2205.00,98.18
2204.00,98.18
2203.00,98.18
2202.00,98.18
2201.00,98.17
2200.00,98.16
2199.00,98.16
2198.00,98.16
2197.00,98.17
2196.00,98.18
2195.00,98.18
2194.00,98.18
2193.00,98.18
2192.00,98.19
2191.00,98.19
2190.00,98.19
2189.00,98.19
2188.00,98.19
2187.00,98.19
2186.00,98.19
2185.00,98.19
2184.00,98.19
2183.00,98.18
2182.00,98.18
2181.00,98.18
2180.00,98.18
2179.00,98.18
2178.00,98.18
2177.00,98.18
2176.00,98.18
2175.00,98.19
2174.00,98.19
2173.00,98.19
2172.00,98.18
2171.00,98.17
2170.00,98.17
2169.00,98.17
2168.00,98.18
2167.00,98.18
2166.00,98.19
2165.00,98.19
2164.00,98.20
2163.00,98.20
2162.00,98.20
2161.00,98.19
2160.00,98.18
2159.00,98.18
2158.00,98.18
2157.00,98.18
2156.00,98.18
2155.00,98.19
2154.00,98.19
2153.00,98.20
2152.00,98.20
2151.00,98.20
2150.00,98.20
2149.00,98.20
2148.00,98.19
2147.00,98.19
2146.00,98.19
2145.00,98.19
2144.00,98.20
2143.00,98.20
2142.00,98.20
2141.00,98.20
2140.00,98.20
2139.00,98.19
2138.00,98.19
2137.00,98.19
2136.00,98.19
2135.00,98.20
2134.00,98.20
2133.00,98.20
2132.00,98.20
2131.00,98.20
2130.00,98.20
2129.00,98.19
2128.00,98.19
2127.00,98.19
2126.00,98.19
2125.00,98.19
2124.00,98.19
2123.00,98.19
2122.00,98.20
2121.00,98.20
2120.00,98.21
2119.00,98.21
2118.00,98.20
2117.00,98.20
2116.00,98.20
2115.00,98.20
2114.00,98.20
2113.00,98.20
2112.00,98.20
2111.00,98.21
2110.00,98.20
2109.00,98.20
2108.00,98.20
2107.00,98.20
2106.00,98.20
2105.00,98.20
2104.00,98.20
2103.00,98.20
2102.00,98.21
2101.00,98.21
2100.00,98.20
2099.00,98.20
2098.00,98.20
2097.00,98.20
2096.00,98.20
2095.00,98.21
2094.00,98.22
2093.00,98.22
2092.00,98.21
2091.00,98.20
2090.00,98.19
2089.00,98.20
2088.00,98.20
2087.00,98.21
2086.00,98.22
2085.00,98.22
2084.00,98.22
2083.00,98.22
2082.00,98.22
2081.00,98.22
2080.00,98.22
2079.00,98.23
2078.00,98.22
2077.00,98.22
2076.00,98.21
2075.00,98.20
2074.00,98.20
2073.00,98.20
2072.00,98.21
2071.00,98.22
2070.00,98.22
2069.00,98.22
2068.00,98.21
2067.00,98.18
2066.00,98.16
2065.00,98.16
2064.00,98.18
2063.00,98.20
2062.00,98.20
2061.00,98.20
2060.00,98.20
2059.00,98.22
2058.00,98.23
2057.00,98.23
2056.00,98.23
2055.00,98.22
2054.00,98.22
2053.00,98.22
2052.00,98.22
2051.00,98.22
2050.00,98.22
2049.00,98.21
2048.00,98.21
2047.00,98.21
2046.00,98.21
2045.00,98.20
2044.00,98.19
2043.00,98.18
2042.00,98.17
2041.00,98.18
2040.00,98.20
2039.00,98.22
2038.00,98.22
2037.00,98.22
2036.00,98.23
2035.00,98.23
2034.00,98.23
2033.00,98.23
2032.00,98.23
2031.00,98.23
2030.00,98.22
2029.00,98.22
2028.00,98.21
2027.00,98.22
2026.00,98.22
2025.00,98.22
2024.00,98.23
2023.00,98.24
2022.00,98.23
2021.00,98.22
2020.00,98.18
2019.00,98.13
2018.00,98.09
2017.00,98.10
2016.00,98.16
2015.00,98.21
2014.00,98.24
2013.00,98.24
2012.00,98.23
2011.00,98.23
2010.00,98.22
2009.00,98.22
2008.00,98.23
2007.00,98.24
2006.00,98.24
2005.00,98.24
2004.00,98.24
2003.00,98.24
2002.00,98.23
2001.00,98.21
2000.00,98.20
1999.00,98.20
1998.00,98.22
1997.00,98.23
1996.00,98.23
1995.00,98.20
1994.00,98.14
1993.00,98.10
1992.00,98.11
1991.00,98.16
1990.00,98.18
1989.00,98.17
1988.00,98.17
1987.00,98.21
1986.00,98.25
1985.00,98.25
1984.00,98.25
1983.00,98.25
1982.00,98.26
1981.00,98.25
1980.00,98.24
1979.00,98.25
1978.00,98.25
1977.00,98.24
1976.00,98.23
1975.00,98.24
1974.00,98.26
1973.00,98.26
1972.00,98.26
1971.00,98.25
1970.00,98.20
1969.00,98.10
1968.00,98.02
1967.00,98.02
1966.00,98.10
1965.00,98.19
1964.00,98.23
1963.00,98.23
1962.00,98.22
1961.00,98.22
1960.00,98.23
1959.00,98.25
1958.00,98.25
1957.00,98.22
1956.00,98.20
1955.00,98.20
1954.00,98.23
1953.00,98.25
1952.00,98.26
1951.00,98.27
1950.00,98.25
1949.00,98.20
1948.00,98.11
1947.00,98.03
1946.00,97.98
1945.00,97.93
1944.00,97.88
1943.00,97.90
1942.00,98.00
1941.00,98.15
1940.00,98.26
1939.00,98.29
1938.00,98.29
1937.00,98.28
1936.00,98.27
1935.00,98.26
1934.00,98.25
1933.00,98.25
1932.00,98.25
1931.00,98.26
1930.00,98.27
1929.00,98.27
1928.00,98.28
1927.00,98.28
1926.00,98.23
1925.00,98.10
1924.00,97.97
1923.00,97.95
1922.00,98.05
1921.00,98.20
1920.00,98.28
1919.00,98.28
1918.00,98.26
1917.00,98.27
1916.00,98.30
1915.00,98.31
1914.00,98.29
1913.00,98.23
1912.00,98.12
1911.00,97.98
1910.00,97.89
1909.00,97.91
1908.00,98.01
1907.00,98.11
1906.00,98.17
1905.00,98.20
1904.00,98.22
1903.00,98.24
1902.00,98.26
1901.00,98.28
1900.00,98.30
1899.00,98.27
1898.00,98.20
1897.00,98.10
1896.00,98.03
1895.00,98.04
1894.00,98.14
1893.00,98.25
1892.00,98.27
1891.00,98.21
1890.00,98.16
1889.00,98.19
1888.00,98.25
1887.00,98.24
1886.00,98.18
1885.00,98.15
1884.00,98.18
1883.00,98.23
1882.00,98.27
1881.00,98.30
1880.00,98.31
1879.00,98.30
1878.00,98.30
1877.00,98.30
1876.00,98.30
1875.00,98.31
1874.00,98.31
1873.00,98.33
1872.00,98.32
1871.00,98.22
1870.00,98.01
1869.00,97.74
1868.00,97.59
1867.00,97.66
1866.00,97.88
1865.00,98.13
1864.00,98.27
1863.00,98.31
1862.00,98.29
1861.00,98.26
1860.00,98.24
1859.00,98.22
1858.00,98.23
1857.00,98.26
1856.00,98.29
1855.00,98.28
1854.00,98.27
1853.00,98.29
1852.00,98.31
1851.00,98.31
1850.00,98.27
1849.00,98.21
1848.00,98.10
1847.00,97.91
1846.00,97.73
1845.00,97.66
1844.00,97.75
1843.00,97.96
1842.00,98.20
1841.00,98.31
1840.00,98.26
1839.00,98.13
1838.00,98.03
1837.00,98.04
1836.00,98.14
1835.00,98.27
1834.00,98.37
1833.00,98.37
1832.00,98.24
1831.00,98.02
1830.00,97.86
1829.00,97.89
1828.00,98.05
1827.00,98.19
1826.00,98.21
1825.00,98.19
1824.00,98.23
1823.00,98.30
1822.00,98.32
1821.00,98.32
1820.00,98.33
1819.00,98.34
1818.00,98.32
1817.00,98.30
1816.00,98.33
1815.00,98.32
1814.00,98.21
1813.00,98.02
1812.00,97.87
1811.00,97.83
1810.00,97.90
1809.00,98.02
1808.00,98.13
1807.00,98.20
1806.00,98.24
1805.00,98.32
1804.00,98.41
1803.00,98.42
1802.00,98.29
1801.00,98.12
1800.00,98.02
1799.00,97.97
1798.00,97.90
1797.00,97.85
1796.00,97.89
1795.00,98.07
1794.00,98.35
1793.00,98.61
1792.00,98.69
1791.00,98.62
1790.00,98.52
1789.00,98.44
1788.00,98.39
1787.00,98.34
1786.00,98.29
1785.00,98.24
1784.00,98.13
1783.00,97.91
1782.00,97.62
1781.00,97.48
1780.00,97.62
1779.00,97.91
1778.00,98.12
1777.00,98.15
1776.00,98.11
1775.00,98.12
1774.00,98.19
1773.00,98.22
1772.00,98.17
1771.00,98.19
1770.00,98.29
1769.00,98.36
1768.00,98.36
1767.00,98.38
1766.00,98.45
1765.00,98.53
1764.00,98.64
1763.00,98.77
1762.00,98.81
1761.00,98.72
1760.00,98.62
1759.00,98.60
1758.00,98.63
1757.00,98.65
1756.00,98.60
1755.00,98.52
1754.00,98.42
1753.00,98.34
1752.00,98.29
1751.00,98.11
1750.00,97.75
1749.00,97.37
1748.00,97.21
1747.00,97.30
1746.00,97.46
1745.00,97.56
1744.00,97.68
1743.00,97.90
1742.00,98.13
1741.00,98.24
1740.00,98.23
1739.00,98.22
1738.00,98.19
1737.00,98.02
1736.00,97.92
1735.00,98.06
1734.00,98.10
1733.00,97.89
1732.00,97.70
1731.00,97.63
1730.00,97.69
1729.00,97.91
1728.00,98.15
1727.00,98.28
1726.00,98.26
1725.00,98.16
1724.00,98.13
1723.00,98.20
1722.00,98.24
1721.00,98.11
1720.00,97.97
1719.00,98.11
1718.00,98.50
1717.00,98.76
1716.00,98.72
1715.00,98.51
1714.00,98.30
1713.00,98.17
1712.00,98.09
1711.00,98.00
1710.00,97.91
1709.00,97.81
1708.00,97.71
1707.00,97.68
1706.00,97.87
1705.00,98.18
1704.00,98.17
1703.00,97.55
1702.00,96.79
1701.00,96.52
1700.00,96.69
1699.00,97.03
1698.00,97.28
1697.00,97.31
1696.00,97.31
1695.00,97.46
1694.00,97.84
1693.00,98.17
1692.00,98.17
1691.00,97.97
1690.00,97.88
1689.00,97.96
1688.00,98.03
1687.00,97.98
1686.00,98.10
1685.00,98.41
1684.00,98.47
1683.00,98.30
1682.00,98.18
1681.00,98.10
1680.00,98.06
1679.00,98.09
1678.00,98.08
1677.00,97.99
1676.00,97.92
1675.00,97.91
1674.00,97.92
1673.00,97.86
1672.00,97.63
1671.00,97.35
1670.00,97.21
1669.00,97.28
1668.00,97.59
1667.00,98.02
1666.00,98.29
1665.00,98.29
1664.00,98.13
1663.00,98.00
1662.00,98.01
1661.00,98.14
1660.00,98.27
1659.00,98.37
1658.00,98.46
1657.00,98.40
1656.00,98.08
1655.00,97.94
1654.00,98.05
1653.00,97.65
1652.00,97.23
1651.00,97.58
1650.00,98.02
1649.00,98.07
1648.00,98.08
1647.00,98.26
1646.00,98.35
1645.00,98.28
1644.00,98.20
1643.00,98.13
1642.00,98.03
1641.00,97.91
1640.00,97.71
1639.00,97.43
1638.00,97.20
1637.00,97.23
1636.00,97.40
1635.00,97.53
1634.00,97.76
1633.00,98.10
1632.00,98.28
1631.00,98.22
1630.00,98.01
1629.00,97.81
1628.00,97.78
1627.00,97.92
1626.00,98.09
1625.00,98.11
1624.00,97.96
1623.00,97.83
1622.00,97.91
1621.00,98.13
1620.00,98.20
1619.00,98.09
1618.00,98.01
1617.00,98.00
1616.00,97.99
1615.00,98.11
1614.00,98.28
1613.00,98.30
1612.00,98.11
1611.00,97.83
1610.00,97.61
1609.00,97.52
1608.00,97.57
1607.00,97.72
1606.00,97.86
1605.00,97.90
1604.00,97.84
1603.00,97.79
1602.00,97.86
1601.00,98.03
1600.00,98.17
1599.00,98.20
1598.00,98.13
1597.00,97.99
1596.00,97.83
1595.00,97.77
1594.00,97.86
1593.00,98.00
1592.00,98.09
1591.00,98.11
1590.00,98.15
1589.00,98.24
1588.00,98.30
1587.00,98.32
1586.00,98.33
1585.00,98.35
1584.00,98.35
1583.00,98.33
1582.00,98.35
1581.00,98.40
1580.00,98.31
1579.00,98.05
1578.00,97.83
1577.00,97.86
1576.00,97.98
1575.00,98.14
1574.00,98.39
1573.00,98.54
1572.00,98.42
1571.00,98.18
1570.00,98.01
1569.00,97.97
1568.00,98.03
1567.00,98.06
1566.00,98.04
1565.00,98.09
1564.00,98.25
1563.00,98.34
1562.00,98.32
1561.00,98.62
1560.00,99.16
1559.00,98.87
1558.00,98.13
1557.00,98.19
1556.00,98.82
1555.00,99.28
1554.00,99.32
1553.00,99.12
1552.00,98.89
1551.00,98.70
1550.00,98.60
1549.00,98.65
1548.00,98.83
1547.00,99.02
1546.00,99.10
1545.00,98.98
1544.00,98.70
1543.00,98.54
1542.00,98.74
1541.00,99.10
1540.00,98.95
1539.00,98.29
1538.00,98.01
1537.00,98.27
1536.00,98.56
1535.00,98.62
1534.00,98.55
1533.00,98.48
1532.00,98.47
1531.00,98.46
1530.00,98.41
1529.00,98.45
1528.00,98.69
1527.00,98.99
1526.00,99.14
1525.00,99.13
1524.00,99.13
1523.00,99.34
1522.00,99.63
1521.00,99.63
1520.00,99.31
1519.00,98.91
1518.00,98.57
1517.00,98.43
1516.00,98.58
1515.00,98.87
1514.00,99.08
1513.00,99.11
1512.00,99.03
1511.00,98.84
1510.00,98.53
1509.00,98.29
1508.00,98.43
1507.00,98.64
1506.00,98.44
1505.00,98.23
1504.00,98.33
1503.00,98.43
1502.00,98.35
1501.00,98.22
1500.00,98.18
1499.00,98.31
1498.00,98.53
1497.00,98.70
1496.00,98.72
1495.00,98.68
1494.00,98.67
1493.00,98.65
1492.00,98.64
1491.00,98.66
1490.00,98.65
1489.00,98.58
1488.00,98.51
1487.00,98.46
1486.00,98.45
1485.00,98.45
1484.00,98.39
1483.00,98.25
1482.00,98.14
1481.00,98.17
1480.00,98.33
1479.00,98.45
1478.00,98.48
1477.00,98.52
1476.00,98.74
1475.00,99.09
1474.00,99.39
1473.00,99.37
1472.00,99.03
1471.00,98.69
1470.00,98.57
1469.00,98.57
1468.00,98.58
1467.00,98.59
1466.00,98.61
1465.00,98.63
1464.00,98.63
1463.00,98.62
1462.00,98.57
1461.00,98.40
1460.00,98.16
1459.00,98.06
1458.00,98.14
1457.00,98.07
1456.00,97.88
1455.00,97.98
1454.00,98.24
1453.00,98.39
1452.00,98.46
1451.00,98.53
1450.00,98.60
1449.00,98.64
1448.00,98.63
1447.00,98.58
1446.00,98.53
1445.00,98.51
1444.00,98.50
1443.00,98.49
1442.00,98.52
1441.00,98.54
1440.00,98.44
1439.00,98.20
1438.00,97.97
1437.00,97.86
1436.00,97.88
1435.00,98.08
1434.00,98.30
1433.00,98.38
1432.00,98.34
1431.00,98.30
1430.00,98.31
1429.00,98.36
1428.00,98.43
1427.00,98.42
1426.00,98.26
1425.00,98.04
1424.00,97.97
1423.00,98.08
1422.00,98.17
1421.00,98.12
1420.00,98.05
1419.00,98.03
1418.00,98.12
1417.00,98.29
1416.00,98.43
1415.00,98.46
1414.00,98.43
1413.00,98.37
1412.00,98.32
1411.00,98.33
1410.00,98.40
1409.00,98.47
1408.00,98.51
1407.00,98.50
1406.00,98.48
1405.00,98.45
1404.00,98.46
1403.00,98.53
1402.00,98.60
1401.00,98.64
1400.00,98.65
1399.00,98.66
1398.00,98.69
1397.00,98.79
1396.00,98.95
1395.00,99.07
1394.00,99.01
1393.00,98.80
1392.00,98.61
1391.00,98.57
1390.00,98.68
1389.00,98.85
1388.00,98.93
1387.00,98.84
1386.00,98.67
1385.00,98.54
1384.00,98.47
1383.00,98.44
1382.00,98.41
1381.00,98.38
1380.00,98.36
1379.00,98.35
1378.00,98.32
1377.00,98.25
1376.00,98.19
1375.00,98.23
1374.00,98.37
1373.00,98.49
1372.00,98.52
1371.00,98.43
1370.00,98.32
1369.00,98.26
1368.00,98.30
1367.00,98.41
1366.00,98.50
1365.00,98.54
1364.00,98.56
1363.00,98.63
1362.00,98.73
1361.00,98.77
1360.00,98.72
1359.00,98.59
1358.00,98.47
1357.00,98.39
1356.00,98.35
1355.00,98.33
1354.00,98.36
1353.00,98.40
1352.00,98.39
1351.00,98.33
1350.00,98.29
1349.00,98.30
1348.00,98.35
1347.00,98.40
1346.00,98.42
1345.00,98.45
1344.00,98.46
1343.00,98.43
1342.00,98.38
1341.00,98.35
1340.00,98.39
1339.00,98.47
1338.00,98.54
1337.00,98.56
1336.00,98.53
1335.00,98.48
1334.00,98.46
1333.00,98.45
1332.00,98.44
1331.00,98.42
1330.00,98.42
1329.00,98.42
1328.00,98.42
1327.00,98.42
1326.00,98.42
1325.00,98.43
1324.00,98.43
1323.00,98.42
1322.00,98.36
1321.00,98.28
1320.00,98.20
1319.00,98.19
1318.00,98.27
1317.00,98.37
1316.00,98.43
1315.00,98.43
1314.00,98.41
1313.00,98.41
1312.00,98.42
1311.00,98.42
1310.00,98.41
1309.00,98.40
1308.00,98.40
1307.00,98.42
1306.00,98.45
1305.00,98.48
1304.00,98.48
1303.00,98.47
1302.00,98.46
1301.00,98.45
1300.00,98.44
1299.00,98.43
1298.00,98.44
1297.00,98.44
1296.00,98.44
1295.00,98.44
1294.00,98.44
1293.00,98.44
1292.00,98.45
1291.00,98.45
1290.00,98.45
1289.00,98.44
1288.00,98.43
1287.00,98.42
1286.00,98.42
1285.00,98.43
1284.00,98.43
1283.00,98.43
1282.00,98.44
1281.00,98.44
1280.00,98.43
1279.00,98.42
1278.00,98.42
1277.00,98.43
1276.00,98.43
1275.00,98.42
1274.00,98.39
1273.00,98.35
1272.00,98.32
1271.00,98.33
1270.00,98.36
1269.00,98.39
1268.00,98.41
1267.00,98.41
1266.00,98.42
1265.00,98.42
1264.00,98.41
1263.00,98.38
1262.00,98.35
1261.00,98.33
1260.00,98.34
1259.00,98.37
1258.00,98.40
1257.00,98.42
1256.00,98.42
1255.00,98.42
1254.00,98.43
1253.00,98.44
1252.00,98.43
1251.00,98.43
1250.00,98.44
1249.00,98.44
1248.00,98.43
1247.00,98.41
1246.00,98.39
1245.00,98.37
1244.00,98.36
1243.00,98.38
1242.00,98.40
1241.00,98.42
1240.00,98.42
1239.00,98.41
1238.00,98.40
1237.00,98.39
1236.00,98.38
1235.00,98.37
1234.00,98.37
1233.00,98.37
1232.00,98.37
1231.00,98.38
1230.00,98.39
1229.00,98.39
1228.00,98.39
1227.00,98.39
1226.00,98.39
1225.00,98.39
1224.00,98.40
1223.00,98.39
1222.00,98.40
1221.00,98.39
1220.00,98.38
1219.00,98.38
1218.00,98.38
1217.00,98.38
1216.00,98.38
1215.00,98.37
1214.00,98.36
1213.00,98.35
1212.00,98.34
1211.00,98.34
1210.00,98.34
1209.00,98.35
1208.00,98.35
1207.00,98.34
1206.00,98.34
1205.00,98.34
1204.00,98.34
1203.00,98.34
1202.00,98.34
1201.00,98.34
1200.00,98.33
1199.00,98.32
1198.00,98.32
1197.00,98.32
1196.00,98.31
1195.00,98.31
1194.00,98.31
1193.00,98.32
1192.00,98.32
1191.00,98.31
1190.00,98.31
1189.00,98.30
1188.00,98.29
1187.00,98.29
1186.00,98.29
1185.00,98.30
1184.00,98.30
1183.00,98.29
1182.00,98.29
1181.00,98.29
1180.00,98.28
1179.00,98.26
1178.00,98.26
1177.00,98.25
1176.00,98.25
1175.00,98.25
1174.00,98.26
1173.00,98.28
1172.00,98.28
1171.00,98.28
1170.00,98.28
1169.00,98.28
1168.00,98.27
1167.00,98.26
1166.00,98.25
1165.00,98.25
1164.00,98.25
1163.00,98.25
1162.00,98.26
1161.00,98.28
1160.00,98.29
1159.00,98.29
1158.00,98.28
1157.00,98.26
1156.00,98.24
1155.00,98.23
1154.00,98.24
1153.00,98.26
1152.00,98.28
1151.00,98.29
1150.00,98.30
1149.00,98.30
1148.00,98.29
1147.00,98.28
1146.00,98.27
1145.00,98.26
1144.00,98.24
1143.00,98.23
1142.00,98.23
1141.00,98.24
1140.00,98.25
1139.00,98.26
1138.00,98.26
1137.00,98.25
1136.00,98.24
1135.00,98.22
1134.00,98.22
1133.00,98.22
1132.00,98.23
1131.00,98.23
1130.00,98.23
1129.00,98.22
1128.00,98.20
1127.00,98.19
1126.00,98.19
1125.00,98.20
1124.00,98.20
1123.00,98.21
1122.00,98.21
1121.00,98.20
1120.00,98.20
1119.00,98.20
1118.00,98.22
1117.00,98.23
1116.00,98.22
1115.00,98.20
1114.00,98.19
1113.00,98.19
1112.00,98.19
1111.00,98.18
1110.00,98.19
1109.00,98.19
1108.00,98.19
1107.00,98.18
1106.00,98.18
1105.00,98.18
1104.00,98.17
1103.00,98.15
1102.00,98.13
1101.00,98.12
1100.00,98.12
1099.00,98.13
1098.00,98.13
1097.00,98.13
1096.00,98.10
1095.00,98.09
1094.00,98.09
1093.00,98.11
1092.00,98.10
1091.00,98.07
1090.00,98.06
1089.00,98.05
1088.00,98.05
1087.00,98.06
1086.00,98.05
1085.00,98.04
1084.00,98.02
1083.00,98.00
1082.00,98.00
1081.00,98.00
1080.00,98.01
1079.00,98.00
1078.00,98.00
1077.00,98.01
1076.00,98.01
1075.00,98.01
1074.00,98.02
1073.00,98.03
1072.00,98.02
1071.00,98.00
1070.00,98.00
1069.00,98.02
1068.00,98.03
1067.00,98.02
1066.00,98.01
1065.00,98.01
1064.00,98.01
1063.00,98.02
1062.00,98.02
1061.00,98.00
1060.00,97.96
1059.00,97.94
1058.00,97.93
1057.00,97.92
1056.00,97.91
1055.00,97.90
1054.00,97.91
1053.00,97.95
1052.00,97.99
1051.00,98.01
1050.00,98.02
1049.00,98.00
1048.00,97.96
1047.00,97.93
1046.00,97.93
1045.00,97.94
1044.00,97.96
1043.00,97.99
1042.00,98.01
1041.00,98.01
1040.00,97.99
1039.00,97.98
1038.00,98.02
1037.00,98.06
1036.00,98.06
1035.00,98.01
1034.00,97.95
1033.00,97.89
1032.00,97.82
1031.00,97.77
1030.00,97.76
1029.00,97.80
1028.00,97.85
1027.00,97.91
1026.00,97.95
1025.00,97.97
1024.00,97.96
1023.00,97.95
1022.00,97.96
1021.00,97.96
1020.00,97.94
1019.00,97.92
1018.00,97.93
1017.00,97.96
1016.00,97.96
1015.00,97.92
1014.00,97.87
1013.00,97.84
1012.00,97.82
1011.00,97.82
1010.00,97.83
1009.00,97.83
1008.00,97.79
1007.00,97.74
1006.00,97.71
1005.00,97.71
1004.00,97.71
1003.00,97.71
1002.00,97.71
1001.00,97.71
1000.00,97.72
999.00,97.76
998.00,97.83
997.00,97.88
996.00,97.86
995.00,97.79
994.00,97.71
993.00,97.65
992.00,97.62
991.00,97.66
990.00,97.76
989.00,97.83
988.00,97.81
987.00,97.72
986.00,97.64
985.00,97.61
984.00,97.61
983.00,97.62
982.00,97.65
981.00,97.63
980.00,97.52
979.00,97.38
978.00,97.33
977.00,97.39
976.00,97.49
975.00,97.55
974.00,97.57
973.00,97.55
972.00,97.51
971.00,97.47
970.00,97.46
969.00,97.41
968.00,97.31
967.00,97.21
966.00,97.19
965.00,97.23
964.00,97.29
963.00,97.34
962.00,97.39
961.00,97.41
960.00,97.39
959.00,97.42
958.00,97.57
957.00,97.72
956.00,97.72
955.00,97.64
954.00,97.67
953.00,97.79
952.00,97.82
951.00,97.66
950.00,97.47
949.00,97.38
948.00,97.38
947.00,97.39
946.00,97.37
945.00,97.27
944.00,97.07
943.00,96.93
942.00,96.99
941.00,97.17
940.00,97.18
939.00,96.87
938.00,96.41
937.00,96.07
936.00,96.09
935.00,96.54
934.00,97.28
933.00,97.93
932.00,98.21
931.00,98.16
930.00,98.06
929.00,97.96
928.00,97.67
927.00,97.18
926.00,96.73
925.00,96.48
924.00,96.39
923.00,96.33
922.00,96.16
921.00,95.81
920.00,95.49
919.00,95.62
918.00,96.26
917.00,96.83
916.00,96.78
915.00,96.20
914.00,95.58
913.00,94.99
912.00,94.40
911.00,94.03
910.00,94.01
909.00,94.06
908.00,94.11
907.00,94.89
906.00,96.47
905.00,97.68
904.00,97.33
903.00,95.76
902.00,94.81
901.00,94.99
900.00,95.53
899.00,95.97
898.00,96.07
897.00,95.40
896.00,93.10
895.00,89.76
894.00,87.76
893.00,87.58
892.00,88.94
891.00,92.81
890.00,98.18
889.00,103.63
888.00,105.72
887.00,101.68
886.00,97.88
885.00,96.58
884.00,93.67
883.00,90.43
882.00,90.75
881.00,93.93
880.00,99.64
879.00,105.26
878.00,109.47
877.00,118.72
876.00,135.88
875.00,148.21
874.00,144.53
873.00,170.24
872.00,198.62
871.00,152.86
870.00,121.10
869.00,118.20
868.00,113.25
867.00,97.10
866.00,95.00
865.00,100.10
864.00,87.99
863.00,90.50
862.00,105.42
861.00,83.46
860.00,91.56
859.00,114.02
858.00,151.80
857.00,289.87
856.00,115.96
855.00,182.65
854.00,157.48
853.00,53.68
852.00,57.26
851.00,49.57
850.00,95.04
849.00,177.61
848.00,107.11
847.00,68.75
846.00,68.18
845.00,146.59
844.00,109.83
843.00,70.59
842.00,65.24
841.00,64.02
840.00,83.42
839.00,64.55
838.00,22.16
837.00,107.92
836.00,251.38
835.00,92.09
834.00,3.71
833.00,74.34
832.00,139.70
831.00,60.30
830.00,-9.33
829.00,56.42
828.00,399.50
827.00,86.21
826.00,39.88
825.00,206.33
824.00,182.60
823.00,216.61
822.00,95.43
821.00,52.24
820.00,80.32
819.00,112.65
818.00,34.41
817.00,170.01
816.00,421.43
815.00,120.32
814.00,4.15
813.00,122.32
812.00,228.25
811.00,122.54
810.00,30.40
809.00,64.80
808.00,160.66
807.00,74.26
806.00,32.82
805.00,161.74
804.00,147.70
803.00,97.56
802.00,68.75
801.00,54.61
800.00,62.51
799.00,80.54
798.00,39.11
797.00,71.53
796.00,238.04
795.00,83.63
794.00,2.54
793.00,41.58
792.00,157.34
791.00,79.43
790.00,54.08
789.00,57.89
788.00,141.40
787.00,165.23
786.00,61.80
785.00,137.52
784.00,181.47
783.00,157.11
782.00,145.70
781.00,75.47
780.00,60.73
779.00,79.63
778.00,78.23
777.00,80.33
776.00,142.92
775.00,135.22
774.00,39.03
773.00,53.40
772.00,85.41
771.00,73.95
770.00,18.69
769.00,126.52
768.00,351.49
767.00,279.85
766.00,96.62
765.00,112.06
764.00,102.03
763.00,62.17
762.00,33.85
761.00,86.42
760.00,161.00
759.00,277.34
758.00,388.96
757.00,135.76
756.00,72.98
755.00,44.95
754.00,34.64
753.00,22.84
752.00,48.61
751.00,43.39
750.00,18.21
749.00,98.92
748.00,162.04
747.00,149.52
746.00,109.79
745.00,302.00
744.00,106.95
743.00,111.44
742.00,298.74
741.00,98.25
740.00,135.61
739.00,197.23
738.00,145.80
737.00,241.56
736.00,87.83
735.00,128.03
734.00,148.21
733.00,126.07
732.00,139.88
731.00,194.27
730.00,47.34
729.00,122.83
728.00,442.99
727.00,310.13
726.00,29.09
725.00,125.63
724.00,125.92
723.00,77.27
722.00,41.78
721.00,66.32
720.00,319.44
719.00,205.06
718.00,136.22
717.00,266.03
716.00,101.33
715.00,106.67
714.00,78.68
713.00,143.38
712.00,189.13
711.00,171.83
710.00,56.84
709.00,80.76
708.00,211.61
707.00,103.53
706.00,90.02
705.00,44.21
704.00,62.84
703.00,67.99
702.00,78.72
701.00,94.08
700.00,113.24
699.00,225.45
698.00,184.91
697.00,91.69
696.00,101.70
695.00,258.94
694.00,139.80
693.00,132.75
692.00,248.65
691.00,70.87
690.00,18.65
689.00,28.65
688.00,48.78
687.00,42.45
686.00,31.82
685.00,40.07
684.00,157.08
683.00,55.47
682.00,10.27
681.00,58.74
680.00,102.25
679.00,66.45
678.00,4.69
677.00,37.75
676.00,92.11
675.00,40.19
674.00,267.93
673.00,40.21
672.00,23.18
671.00,59.27
670.00,189.78
669.00,56.99
668.00,19.92
667.00,127.24
666.00,103.60
665.00,135.83
664.00,73.52
663.00,29.89
662.00,74.62
661.00,61.52
660.00,61.35
659.00,69.91
658.00,405.29
657.00,228.43
656.00,107.12
655.00,113.32
654.00,139.70
653.00,152.32
652.00,58.21
651.00,92.53
650.00,153.11
649.00,83.53
648.00,35.29
647.00,44.80
646.00,84.62
645.00,58.86
644.00,6.71
643.00,47.49
642.00,40.56
641.00,28.99
640.00,150.85
639.00,47.25
638.00,18.17
637.00,19.31
636.00,100.37
635.00,70.24
634.00,51.60
633.00,66.43
632.00,113.95
631.00,63.84
630.00,24.94
629.00,71.83
628.00,138.52
627.00,25.23
626.00,38.81
625.00,39.67
624.00,66.04
623.00,52.40
622.00,158.68
621.00,346.83
620.00,73.56
619.00,44.98
618.00,11.09
617.00,53.24
616.00,90.02
615.00,55.60
614.00,83.49
613.00,162.42
612.00,133.34
611.00,49.76
610.00,115.37
609.00,127.25
608.00,238.45
607.00,184.80
606.00,53.81
605.00,79.93
604.00,195.36
603.00,102.73
602.00,39.87
601.00,42.10
600.00,77.68
599.00,47.00
598.00,56.95
597.00,12.51
596.00,37.84
595.00,22.41
594.00,60.17
593.00,42.34
592.00,81.27
591.00,371.06
590.00,176.21
589.00,89.40
588.00,134.79
587.00,46.74
586.00,30.19
585.00,77.47
584.00,126.53
583.00,160.19
582.00,176.31
581.00,351.59
580.00,74.80
579.00,99.80
578.00,64.45
577.00,110.91
576.00,177.11
575.00,320.13
574.00,22.57
573.00,166.15
572.00,929.37
571.00,146.18
570.00,-40.64
569.00,144.64
568.00,1878.17
567.00,167.77
566.00,-9.79
565.00,117.05
564.00,147.48
563.00,88.67
562.00,57.63
561.00,96.99
560.00,58.54
559.00,233.26
558.00,205.07
557.00,86.14
556.00,67.92
555.00,87.09
554.00,71.62
553.00,19.21
552.00,37.44
551.00,82.45
550.00,197.08
549.00,157.38
548.00,40.70
547.00,87.64
546.00,65.74
545.00,65.02
544.00,137.34
543.00,62.60
542.00,51.84
541.00,20.75
540.00,63.03
539.00,41.68
538.00,40.11
537.00,66.62
536.00,92.77
535.00,73.30
534.00,103.46
533.00,55.80
532.00,36.18
531.00,96.88
530.00,79.94
529.00,52.78
528.00,194.84
527.00,96.40
526.00,16.82
525.00,115.81
524.00,96.54
523.00,62.72
522.00,58.63
521.00,72.54
520.00,203.10
519.00,72.80
518.00,59.54
517.00,93.28
516.00,98.62
515.00,65.20
514.00,56.06
513.00,18.89
512.00,57.41
511.00,49.15
510.00,102.98
509.00,227.64
508.00,57.44
507.00,291.27
506.00,209.58
505.00,167.18
504.00,51.27
503.00,109.19
502.00,183.98
501.00,47.60
500.00,49.85
499.00,20.49
498.00,15.35
497.00,6.71
496.00,40.08
495.00,92.15
494.00,233.19
493.00,72.07
492.00,34.17
491.00,114.85
490.00,166.80
489.00,100.67
488.00,61.33
487.00,97.48
486.00,136.65
485.00,35.42
484.00,11.70
483.00,56.82
482.00,786.51
481.00,91.40
480.00,28.34
479.00,36.15
478.00,83.14
477.00,214.86
476.00,107.89
475.00,55.24
474.00,58.18
473.00,37.55
472.00,59.49
471.00,78.73
470.00,54.97
469.00,62.40
468.00,520.00
467.00,94.83
466.00,34.54
465.00,38.11
464.00,79.27
463.00,69.76
462.00,60.53
461.00,89.80
460.00,200.43
459.00,85.87
458.00,74.00
457.00,38.26
456.00,74.15
455.00,15.07
454.00,32.23
453.00,69.66
452.00,130.48
451.00,131.45
450.00,66.28
