Data from Sun outside no cover_USB4F034991__1__09-49-01-484.txt Node

Date: Tue Sep 23 09:49:01 EDT 2025
User: brett
Spectrometer: USB4F03499
Trigger mode: 4
Integration Time (sec): 5.000000E-1
Scans to average: 1
Electric dark correction enabled: true
Nonlinearity correction enabled: true
Boxcar width: 0
XAxis mode: Wavelengths
Number of Pixels in Spectrum: 3648
>>>>>Begin Spectral Data<<<<<
0	-10030.59019
0.225	-10030.59019
0.449	-10030.59019
0.674	-9908.90765
0.898	-9925.62316
1.123	-8160.83997
1.347	-8201.09866
1.572	-8160.83997
1.796	-7964.93941
2.021	-7754.10345
2.245	-7297.3201
2.469	-7239.1394
2.694	-6739.32168
2.918	-6180.23204
3.143	-5222.59919
3.367	-3233.29142
3.591	58196.44476
3.815	58196.44476
4.04	58196.44476
4.264	58196.44476
4.488	58196.44476
4.712	58196.44476
4.936	58196.44476
5.161	58196.44476
5.385	58196.44476
5.609	58196.44476
5.833	58196.44476
6.057	58196.44476
6.281	58196.44476
6.505	58196.44476
6.729	58196.44476
6.953	58196.44476
7.177	58196.44476
7.401	58196.44476
7.625	58196.44476
7.849	58196.44476
8.073	58196.44476
8.297	58196.44476
8.521	58196.44476
8.744	58196.44476
8.968	58196.44476
9.192	58196.44476
9.416	58196.44476
9.64	58196.44476
9.863	58196.44476
10.087	58196.44476
10.311	58196.44476
10.535	58196.44476
10.758	58196.44476
10.982	58196.44476
11.205	58196.44476
11.429	58196.44476
11.653	58196.44476
11.876	58196.44476
12.1	58196.44476
12.323	58196.44476
12.547	58196.44476
12.77	58196.44476
12.994	58196.44476
13.217	58196.44476
13.441	58196.44476
13.664	58196.44476
13.887	58196.44476
14.111	58196.44476
14.334	58196.44476
14.557	58196.44476
14.781	58196.44476
15.004	58196.44476
15.227	58196.44476
15.451	58196.44476
15.674	58196.44476
15.897	58196.44476
16.12	58196.44476
16.343	58196.44476
16.567	58196.44476
16.79	58196.44476
17.013	58196.44476
17.236	58196.44476
17.459	58196.44476
17.682	58196.44476
17.905	58196.44476
18.128	58196.44476
18.351	58196.44476
18.574	58196.44476
18.797	58196.44476
19.02	58196.44476
19.243	58196.44476
19.466	58196.44476
19.689	58196.44476
19.911	58196.44476
20.134	58196.44476
20.357	58196.44476
20.58	58196.44476
20.803	58196.44476
21.025	58196.44476
21.248	58196.44476
21.471	58196.44476
21.694	58196.44476
21.916	58196.44476
22.139	58196.44476
22.362	58196.44476
22.584	58196.44476
22.807	58196.44476
23.029	58196.44476
23.252	58196.44476
23.475	58196.44476
23.697	58196.44476
23.92	58196.44476
24.142	58196.44476
24.365	58196.44476
24.587	58196.44476
24.809	58196.44476
25.032	58196.44476
25.254	58196.44476
25.477	58196.44476
25.699	58196.44476
25.921	58196.44476
26.144	58196.44476
26.366	58196.44476
26.588	58196.44476
26.81	58196.44476
27.033	58196.44476
27.255	58196.44476
27.477	58196.44476
27.699	58196.44476
27.921	58196.44476
28.144	58196.44476
28.366	58196.44476
28.588	58196.44476
28.81	58196.44476
29.032	58196.44476
29.254	58196.44476
29.476	58196.44476
29.698	58196.44476
29.92	58196.44476
30.142	58196.44476
30.364	58196.44476
30.586	58196.44476
30.808	58196.44476
31.029	58196.44476
31.251	58196.44476
31.473	58196.44476
31.695	58196.44476
31.917	58196.44476
32.139	58196.44476
32.36	58196.44476
32.582	58196.44476
32.804	58196.44476
33.026	58196.44476
33.247	58196.44476
33.469	58196.44476
33.691	58196.44476
33.912	58196.44476
34.134	58196.44476
34.355	58196.44476
34.577	58196.44476
34.798	58196.44476
35.02	58196.44476
35.242	58196.44476
35.463	58196.44476
35.684	58196.44476
35.906	58196.44476
36.127	58196.44476
36.349	58196.44476
36.57	58196.44476
36.792	58196.44476
37.013	58196.44476
37.234	58196.44476
37.456	58196.44476
37.677	58196.44476
37.898	58196.44476
38.119	58196.44476
38.341	58196.44476
38.562	58196.44476
38.783	58196.44476
39.004	58196.44476
39.225	58196.44476
39.447	58196.44476
39.668	58196.44476
39.889	58196.44476
40.11	58196.44476
40.331	58196.44476
40.552	58196.44476
40.773	58196.44476
40.994	58196.44476
41.215	58196.44476
41.436	58196.44476
41.657	58196.44476
41.878	58196.44476
42.099	58196.44476
42.32	58196.44476
42.54	58196.44476
42.761	58196.44476
42.982	58196.44476
43.203	58196.44476
43.424	58196.44476
43.645	58196.44476
43.865	58196.44476
44.086	58196.44476
44.307	58196.44476
44.527	58196.44476
44.748	58196.44476
44.969	58196.44476
45.189	58196.44476
45.41	58196.44476
45.631	58196.44476
45.851	58196.44476
46.072	58196.44476
46.292	58196.44476
46.513	58196.44476
46.733	58196.44476
46.954	58196.44476
47.174	58196.44476
47.395	58196.44476
47.615	58196.44476
47.836	58196.44476
48.056	58196.44476
48.276	58196.44476
48.497	58196.44476
48.717	58196.44476
48.937	58196.44476
49.158	58196.44476
49.378	58196.44476
49.598	58196.44476
49.818	58196.44476
50.038	58196.44476
50.259	58196.44476
50.479	58196.44476
50.699	58196.44476
50.919	58196.44476
51.139	58196.44476
51.359	58196.44476
51.579	58196.44476
51.799	58196.44476
52.02	58196.44476
52.24	58196.44476
52.46	58196.44476
52.68	58196.44476
52.899	58196.44476
53.119	58196.44476
53.339	58196.44476
53.559	58196.44476
53.779	58196.44476
53.999	58196.44476
54.219	58196.44476
54.439	58196.44476
54.658	58196.44476
54.878	58196.44476
55.098	58196.44476
55.318	58196.44476
55.538	58196.44476
55.757	58196.44476
55.977	58196.44476
56.197	58196.44476
56.416	58196.44476
56.636	58196.44476
56.855	58196.44476
57.075	58196.44476
57.295	58196.44476
57.514	58196.44476
57.734	58196.44476
57.953	58196.44476
58.173	58196.44476
58.392	58196.44476
58.612	58196.44476
58.831	58196.44476
59.051	58196.44476
59.27	58196.44476
59.489	58196.44476
59.709	58196.44476
59.928	58196.44476
60.147	58196.44476
60.367	58196.44476
60.586	58196.44476
60.805	58196.44476
61.024	58196.44476
61.244	58196.44476
61.463	58196.44476
61.682	58196.44476
61.901	58196.44476
62.12	58196.44476
62.34	58196.44476
62.559	58196.44476
62.778	58196.44476
62.997	58196.44476
63.216	58196.44476
63.435	58196.44476
63.654	58196.44476
63.873	58196.44476
64.092	58196.44476
64.311	58196.44476
64.53	58196.44476
64.749	58196.44476
64.968	58196.44476
65.187	58196.44476
65.405	58196.44476
65.624	58196.44476
65.843	58196.44476
66.062	58196.44476
66.281	58196.44476
66.499	58196.44476
66.718	58196.44476
66.937	58196.44476
67.156	58196.44476
67.374	58196.44476
67.593	58196.44476
67.812	58196.44476
68.03	58196.44476
68.249	58196.44476
68.467	58196.44476
68.686	58196.44476
68.905	58196.44476
69.123	58196.44476
69.342	58196.44476
69.56	58196.44476
69.779	58196.44476
69.997	58196.44476
70.216	58196.44476
70.434	58196.44476
70.652	58196.44476
70.871	58196.44476
71.089	58196.44476
71.307	58196.44476
71.526	58196.44476
71.744	58196.44476
71.962	58196.44476
72.181	58196.44476
72.399	58196.44476
72.617	58196.44476
72.835	58196.44476
73.054	58196.44476
73.272	58196.44476
73.49	58196.44476
73.708	58196.44476
73.926	58196.44476
74.144	58196.44476
74.362	58196.44476
74.58	58196.44476
74.798	58196.44476
75.016	58196.44476
75.234	58196.44476
75.452	58196.44476
75.67	58196.44476
75.888	58196.44476
76.106	58196.44476
76.324	58196.44476
76.542	58196.44476
76.76	58196.44476
76.978	58196.44476
77.196	58196.44476
77.413	58196.44476
77.631	58196.44476
77.849	58196.44476
78.067	58196.44476
78.284	58196.44476
78.502	58196.44476
78.72	58196.44476
78.938	58196.44476
79.155	58196.44476
79.373	58196.44476
79.59	58196.44476
79.808	58196.44476
80.026	58196.44476
80.243	58196.44476
80.461	58196.44476
80.678	58196.44476
80.896	58196.44476
81.113	58196.44476
81.331	58196.44476
81.548	58196.44476
81.766	58196.44476
81.983	58196.44476
82.2	58196.44476
82.418	58196.44476
82.635	58196.44476
82.852	58196.44476
83.07	58196.44476
83.287	58196.44476
83.504	58196.44476
83.722	58196.44476
83.939	58196.44476
84.156	58196.44476
84.373	58196.44476
84.591	58196.44476
84.808	58196.44476
85.025	58196.44476
85.242	58196.44476
85.459	58196.44476
85.676	58196.44476
85.893	58196.44476
86.11	58196.44476
86.327	58196.44476
86.544	58196.44476
86.761	58196.44476
86.978	58196.44476
87.195	58196.44476
87.412	58196.44476
87.629	58196.44476
87.846	58196.44476
88.063	58196.44476
88.28	58196.44476
88.497	58196.44476
88.713	58196.44476
88.93	58196.44476
89.147	58196.44476
89.364	58196.44476
89.58	58196.44476
89.797	58196.44476
90.014	58196.44476
90.231	58196.44476
90.447	58196.44476
90.664	58196.44476
90.881	58196.44476
91.097	58196.44476
91.314	58196.44476
91.53	58196.44476
91.747	58196.44476
91.963	58196.44476
92.18	58196.44476
92.396	58196.44476
92.613	58196.44476
92.829	58196.44476
93.046	58196.44476
93.262	58196.44476
93.479	58196.44476
93.695	58196.44476
93.911	58196.44476
94.128	58196.44476
94.344	58196.44476
94.56	58196.44476
94.777	58196.44476
94.993	58196.44476
95.209	58196.44476
95.426	58196.44476
95.642	58196.44476
95.858	58196.44476
96.074	58196.44476
96.29	58196.44476
96.506	58196.44476
96.723	58196.44476
96.939	58196.44476
97.155	58196.44476
97.371	58196.44476
97.587	58196.44476
97.803	58196.44476
98.019	58196.44476
98.235	58196.44476
98.451	58196.44476
98.667	58196.44476
98.883	58196.44476
99.099	58196.44476
99.315	58196.44476
99.53	58196.44476
99.746	58196.44476
99.962	58196.44476
100.178	58196.44476
100.394	58196.44476
100.61	58196.44476
100.825	58196.44476
101.041	58196.44476
101.257	58196.44476
101.473	58196.44476
101.688	58196.44476
101.904	58196.44476
102.12	58196.44476
102.335	58196.44476
102.551	58196.44476
102.766	58196.44476
102.982	58196.44476
103.198	58196.44476
103.413	58196.44476
103.629	58196.44476
103.844	58196.44476
104.06	58196.44476
104.275	58196.44476
104.49	58196.44476
104.706	58196.44476
104.921	58196.44476
105.137	58196.44476
105.352	58196.44476
105.567	58196.44476
105.783	58196.44476
105.998	58196.44476
106.213	58196.44476
106.429	58196.44476
106.644	58196.44476
106.859	58196.44476
107.074	58196.44476
107.29	58196.44476
107.505	58196.44476
107.72	58196.44476
107.935	58196.44476
108.15	58196.44476
108.365	58196.44476
108.58	58196.44476
108.795	58196.44476
109.01	58196.44476
109.226	58196.44476
109.441	58196.44476
109.656	58196.44476
109.871	58196.44476
110.085	58196.44476
110.3	58196.44476
110.515	58196.44476
110.73	58196.44476
110.945	58196.44476
111.16	58196.44476
111.375	58196.44476
111.59	58196.44476
111.804	58196.44476
112.019	58196.44476
112.234	58196.44476
112.449	58196.44476
112.663	58196.44476
112.878	58196.44476
113.093	58196.44476
113.308	58196.44476
113.522	58196.44476
113.737	58196.44476
113.951	58196.44476
114.166	58196.44476
114.381	58196.44476
114.595	58196.44476
114.81	58196.44476
115.024	58196.44476
115.239	58196.44476
115.453	58196.44476
115.668	58196.44476
115.882	58196.44476
116.097	58196.44476
116.311	58196.44476
116.525	58196.44476
116.74	58196.44476
116.954	58196.44476
117.169	58196.44476
117.383	58196.44476
117.597	58196.44476
117.811	58196.44476
118.026	58196.44476
118.24	58196.44476
118.454	58196.44476
118.668	58196.44476
118.883	58196.44476
119.097	58196.44476
119.311	58196.44476
119.525	58196.44476
119.739	58196.44476
119.953	58196.44476
120.167	58196.44476
120.381	58196.44476
120.595	58196.44476
120.809	58196.44476
121.023	58196.44476
121.237	58196.44476
121.451	58196.44476
121.665	58196.44476
121.879	58196.44476
122.093	58196.44476
122.307	58196.44476
122.521	58196.44476
122.735	58196.44476
122.949	58196.44476
123.163	58196.44476
123.376	58196.44476
123.59	58196.44476
123.804	58196.44476
124.018	58196.44476
124.231	58196.44476
124.445	58196.44476
124.659	58196.44476
124.872	58196.44476
125.086	58196.44476
125.3	58196.44476
125.513	58196.44476
125.727	58196.44476
125.94	58196.44476
126.154	58196.44476
126.368	58196.44476
126.581	58196.44476
126.795	58196.44476
127.008	58196.44476
127.222	58196.44476
127.435	58196.44476
127.648	58196.44476
127.862	58196.44476
128.075	58196.44476
128.289	58196.44476
128.502	58196.44476
128.715	58196.44476
128.929	58196.44476
129.142	58196.44476
129.355	58196.44476
129.568	58196.44476
129.782	58196.44476
129.995	58196.44476
130.208	58196.44476
130.421	58196.44476
130.634	58196.44476
130.848	58196.44476
131.061	58196.44476
131.274	58196.44476
131.487	58196.44476
131.7	58196.44476
131.913	58196.44476
132.126	58196.44476
132.339	58196.44476
132.552	58196.44476
132.765	58196.44476
132.978	58196.44476
133.191	58196.44476
133.404	58196.44476
133.617	58196.44476
133.83	58196.44476
134.043	58196.44476
134.255	58196.44476
134.468	58196.44476
134.681	58196.44476
134.894	58196.44476
135.107	58196.44476
135.319	58196.44476
135.532	58196.44476
135.745	58196.44476
135.958	58196.44476
136.17	58196.44476
136.383	58196.44476
136.596	58196.44476
136.808	58196.44476
137.021	58196.44476
137.233	58196.44476
137.446	58196.44476
137.659	58196.44476
137.871	58196.44476
138.084	58196.44476
138.296	58196.44476
138.509	58196.44476
138.721	58196.44476
138.934	58196.44476
139.146	58196.44476
139.358	58196.44476
139.571	58196.44476
139.783	58196.44476
139.996	58196.44476
140.208	58196.44476
140.42	58196.44476
140.632	58196.44476
140.845	58196.44476
141.057	58196.44476
141.269	58196.44476
141.481	58196.44476
141.694	58196.44476
141.906	58196.44476
142.118	58196.44476
142.33	58196.44476
142.542	58196.44476
142.754	58196.44476
142.967	58196.44476
143.179	58196.44476
143.391	58196.44476
143.603	58196.44476
143.815	58196.44476
144.027	58196.44476
144.239	58196.44476
144.451	58196.44476
144.663	58196.44476
144.875	58196.44476
145.086	58196.44476
145.298	58196.44476
145.51	58196.44476
145.722	58196.44476
145.934	58196.44476
146.146	58196.44476
146.358	58196.44476
146.569	58196.44476
146.781	58196.44476
146.993	58196.44476
147.205	58196.44476
147.416	58196.44476
147.628	58196.44476
147.84	58196.44476
148.051	58196.44476
148.263	58196.44476
148.475	58196.44476
148.686	58196.44476
148.898	58196.44476
149.109	58196.44476
149.321	58196.44476
149.532	58196.44476
149.744	58196.44476
149.955	58196.44476
150.167	58196.44476
150.378	58196.44476
150.59	58196.44476
150.801	58196.44476
151.013	58196.44476
151.224	58196.44476
151.435	58196.44476
151.647	58196.44476
151.858	58196.44476
152.069	58196.44476
152.281	58196.44476
152.492	58196.44476
152.703	58196.44476
152.914	58196.44476
153.126	58196.44476
153.337	58196.44476
153.548	58196.44476
153.759	58196.44476
153.97	58196.44476
154.181	58196.44476
154.392	58196.44476
154.604	58196.44476
154.815	58196.44476
155.026	58196.44476
155.237	58196.44476
155.448	58196.44476
155.659	58196.44476
155.87	58196.44476
156.081	58196.44476
156.292	58196.44476
156.502	58196.44476
156.713	58196.44476
156.924	58196.44476
157.135	58196.44476
157.346	58196.44476
157.557	58196.44476
157.768	58196.44476
157.978	58196.44476
158.189	58196.44476
158.4	58196.44476
158.611	58196.44476
158.821	58196.44476
159.032	58196.44476
159.243	58196.44476
159.453	58196.44476
159.664	58196.44476
159.875	58196.44476
160.085	58196.44476
160.296	58196.44476
160.507	58196.44476
160.717	58196.44476
160.928	58196.44476
161.138	58196.44476
161.349	58196.44476
161.559	58196.44476
161.77	58196.44476
161.98	58196.44476
162.19	58196.44476
162.401	58196.44476
162.611	58196.44476
162.822	58196.44476
163.032	58196.44476
163.242	58196.44476
163.453	58196.44476
163.663	58196.44476
163.873	58196.44476
164.084	58196.44476
164.294	58196.44476
164.504	58196.44476
164.714	58196.44476
164.924	58196.44476
165.135	58196.44476
165.345	58196.44476
165.555	58196.44476
165.765	58196.44476
165.975	58196.44476
166.185	58196.44476
166.395	58196.44476
166.605	58196.44476
166.815	58196.44476
167.025	58196.44476
167.235	58196.44476
167.445	58196.44476
167.655	58196.44476
167.865	58196.44476
168.075	58196.44476
168.285	58196.44476
168.495	58196.44476
168.705	58196.44476
168.915	58196.44476
169.124	58196.44476
169.334	58196.44476
169.544	58196.44476
169.754	58196.44476
169.964	58196.44476
170.173	58196.44476
170.383	58196.44476
170.593	58196.44476
170.802	58196.44476
171.012	58196.44476
171.222	58196.44476
171.431	58196.44476
171.641	58196.44476
171.851	58196.44476
172.06	58196.44476
172.27	58196.44476
172.479	58196.44476
172.689	58196.44476
172.898	58196.44476
173.108	58196.44476
173.317	58196.44476
173.527	58196.44476
173.736	58196.44476
173.945	58196.44476
174.155	58196.44476
174.364	58196.44476
174.574	58196.44476
174.783	58196.44476
174.992	58196.44476
175.202	58196.44476
175.411	58196.44476
175.62	58196.44476
175.829	58196.44476
176.039	58196.44476
176.248	58196.44476
176.457	58196.44476
176.666	58196.44476
176.875	58196.44476
177.084	58196.44476
177.294	58196.44476
177.503	58196.44476
177.712	58196.44476
177.921	58196.44476
178.13	58196.44476
178.339	58196.44476
178.548	58196.44476
178.757	58196.44476
178.966	58196.44476
179.175	58196.44476
179.384	58196.44476
179.593	58196.44476
179.802	58196.44476
180.011	58196.44476
180.219	58196.44476
180.428	58196.44476
180.637	58196.44476
180.846	58196.44476
181.055	58196.44476
181.263	58196.44476
181.472	58196.44476
181.681	58196.44476
181.89	58196.44476
182.098	58196.44476
182.307	58196.44476
182.516	58196.44476
182.724	58196.44476
182.933	58196.44476
183.142	58196.44476
183.35	58196.44476
183.559	58196.44476
183.767	58196.44476
183.976	58196.44476
184.184	58196.44476
184.393	58196.44476
184.601	58196.44476
184.81	58196.44476
185.018	58196.44476
185.227	58196.44476
185.435	58196.44476
185.644	58196.44476
185.852	58196.44476
186.06	58196.44476
186.269	58196.44476
186.477	58196.44476
186.685	58196.44476
186.894	58196.44476
187.102	58196.44476
187.31	58196.44476
187.518	58196.44476
187.727	58196.44476
187.935	58196.44476
188.143	58196.44476
188.351	58196.44476
188.559	58196.44476
188.768	58196.44476
188.976	58196.44476
189.184	58196.44476
189.392	58196.44476
189.6	58196.44476
189.808	58196.44476
190.016	58196.44476
190.224	58196.44476
190.432	58196.44476
190.64	58196.44476
190.848	58196.44476
191.056	58196.44476
191.264	58196.44476
191.472	58196.44476
191.679	58196.44476
191.887	58196.44476
192.095	58196.44476
192.303	58196.44476
192.511	58196.44476
192.719	58196.44476
192.926	58196.44476
193.134	58196.44476
193.342	58196.44476
193.55	58196.44476
193.757	58196.44476
193.965	58196.44476
194.173	58196.44476
194.38	58196.44476
194.588	58196.44476
194.796	58196.44476
195.003	58196.44476
195.211	58196.44476
195.418	58196.44476
195.626	58196.44476
195.833	58196.44476
196.041	58196.44476
196.248	58196.44476
196.456	58196.44476
196.663	58196.44476
196.871	58196.44476
197.078	58196.44476
197.285	58196.44476
197.493	58196.44476
197.7	58196.44476
197.908	58196.44476
198.115	58196.44476
198.322	58196.44476
198.529	58196.44476
198.737	58196.44476
198.944	58196.44476
199.151	58196.44476
199.358	58196.44476
199.566	58196.44476
199.773	58196.44476
199.98	58196.44476
200.187	58196.44476
200.394	58196.44476
200.601	58196.44476
200.809	58196.44476
201.016	58196.44476
201.223	58196.44476
201.43	58196.44476
201.637	58196.44476
201.844	58196.44476
202.051	58196.44476
202.258	58196.44476
202.465	58196.44476
202.672	58196.44476
202.878	58196.44476
203.085	58196.44476
203.292	58196.44476
203.499	58196.44476
203.706	58196.44476
203.913	58196.44476
204.12	58196.44476
204.326	58196.44476
204.533	58196.44476
204.74	58196.44476
204.947	58196.44476
205.153	58196.44476
205.36	58196.44476
205.567	58196.44476
205.773	58196.44476
205.98	58196.44476
206.187	58196.44476
206.393	58196.44476
206.6	58196.44476
206.806	58196.44476
207.013	58196.44476
207.22	58196.44476
207.426	58196.44476
207.633	58196.44476
207.839	58196.44476
208.046	58196.44476
208.252	58196.44476
208.458	58196.44476
208.665	58196.44476
208.871	58196.44476
209.078	58196.44476
209.284	58196.44476
209.49	58196.44476
209.697	58196.44476
209.903	58196.44476
210.109	58196.44476
210.316	58196.44476
210.522	58196.44476
210.728	58196.44476
210.934	58196.44476
211.14	58196.44476
211.347	58196.44476
211.553	58196.44476
211.759	58196.44476
211.965	58196.44476
212.171	58196.44476
212.377	58196.44476
212.583	58196.44476
212.789	58196.44476
212.996	58196.44476
213.202	58196.44476
213.408	58196.44476
213.614	58196.44476
213.82	58196.44476
214.025	58196.44476
214.231	58196.44476
214.437	58196.44476
214.643	58196.44476
214.849	58196.44476
215.055	58196.44476
215.261	58196.44476
215.467	58196.44476
215.672	58196.44476
215.878	58196.44476
216.084	58196.44476
216.29	58196.44476
216.496	58196.44476
216.701	58196.44476
216.907	58196.44476
217.113	58196.44476
217.318	58196.44476
217.524	58196.44476
217.73	58196.44476
217.935	58196.44476
218.141	58196.44476
218.346	58196.44476
218.552	58196.44476
218.758	58196.44476
218.963	58196.44476
219.169	58196.44476
219.374	58196.44476
219.58	58196.44476
219.785	58196.44476
219.991	58196.44476
220.196	58196.44476
220.401	58196.44476
220.607	58196.44476
220.812	58196.44476
221.017	58196.44476
221.223	58196.44476
221.428	58196.44476
221.633	58196.44476
221.839	58196.44476
222.044	58196.44476
222.249	58196.44476
222.454	58196.44476
222.66	58196.44476
222.865	58196.44476
223.07	58196.44476
223.275	58196.44476
223.48	58196.44476
223.686	58196.44476
223.891	58196.44476
224.096	58196.44476
224.301	58196.44476
224.506	58196.44476
224.711	58196.44476
224.916	58196.44476
225.121	58196.44476
225.326	58196.44476
225.531	58196.44476
225.736	58196.44476
225.941	58196.44476
226.146	58196.44476
226.351	58196.44476
226.555	58196.44476
226.76	58196.44476
226.965	58196.44476
227.17	58196.44476
227.375	58196.44476
227.58	58196.44476
227.784	58196.44476
227.989	58196.44476
228.194	58196.44476
228.399	58196.44476
228.603	58196.44476
228.808	58196.44476
229.013	58196.44476
229.217	58196.44476
229.422	58196.44476
229.627	58196.44476
229.831	58196.44476
230.036	58196.44476
230.24	58196.44476
230.445	58196.44476
230.649	58196.44476
230.854	58196.44476
231.058	58196.44476
231.263	58196.44476
231.467	58196.44476
231.672	58196.44476
231.876	58196.44476
232.081	58196.44476
232.285	58196.44476
232.489	58196.44476
232.694	58196.44476
232.898	58196.44476
233.102	58196.44476
233.307	58196.44476
233.511	58196.44476
233.715	58196.44476
233.919	58196.44476
234.124	58196.44476
234.328	58196.44476
234.532	58196.44476
234.736	58196.44476
234.94	58196.44476
235.145	58196.44476
235.349	58196.44476
235.553	58196.44476
235.757	58196.44476
235.961	58196.44476
236.165	58196.44476
236.369	58196.44476
236.573	58196.44476
236.777	58196.44476
236.981	58196.44476
237.185	58196.44476
237.389	58196.44476
237.593	58196.44476
237.797	58196.44476
238.001	58196.44476
238.205	58196.44476
238.409	58196.44476
238.612	58196.44476
238.816	58196.44476
239.02	58196.44476
239.224	58196.44476
239.428	58196.44476
239.631	58196.44476
239.835	58196.44476
240.039	58196.44476
240.243	58196.44476
240.446	58196.44476
240.65	58196.44476
240.854	58196.44476
241.057	58196.44476
241.261	58196.44476
241.464	58196.44476
241.668	58196.44476
241.872	58196.44476
242.075	58196.44476
242.279	58196.44476
242.482	58196.44476
242.686	58196.44476
242.889	58196.44476
243.093	58196.44476
243.296	58196.44476
243.499	58196.44476
243.703	58196.44476
243.906	58196.44476
244.11	58196.44476
244.313	58196.44476
244.516	58196.44476
244.72	58196.44476
244.923	58196.44476
245.126	58196.44476
245.33	58196.44476
245.533	58196.44476
245.736	58196.44476
245.939	58196.44476
246.142	58196.44476
246.346	58196.44476
246.549	58196.44476
246.752	58196.44476
246.955	58196.44476
247.158	58196.44476
247.361	58196.44476
247.564	58196.44476
247.767	58196.44476
247.971	58196.44476
248.174	58196.44476
248.377	58196.44476
248.58	58196.44476
248.783	58196.44476
248.985	58196.44476
249.188	58196.44476
249.391	58196.44476
249.594	58196.44476
249.797	58196.44476
250	58196.44476
250.203	58196.44476
250.406	58196.44476
250.609	58196.44476
250.811	58196.44476
251.014	58196.44476
251.217	58196.44476
251.42	58196.44476
251.622	58196.44476
251.825	58196.44476
252.028	58196.44476
252.231	58196.44476
252.433	58196.44476
252.636	58196.44476
252.838	58196.44476
253.041	58196.44476
253.244	58196.44476
253.446	58196.44476
253.649	58196.44476
253.851	58196.44476
254.054	58196.44476
254.256	58196.44476
254.459	58196.44476
254.661	58196.44476
254.864	58196.44476
255.066	58196.44476
255.269	58196.44476
255.471	58196.44476
255.673	58196.44476
255.876	58196.44476
256.078	58196.44476
256.281	58196.44476
256.483	58196.44476
256.685	58196.44476
256.887	58196.44476
257.09	58196.44476
257.292	58196.44476
257.494	58196.44476
257.696	58196.44476
257.899	58196.44476
258.101	58196.44476
258.303	58196.44476
258.505	58196.44476
258.707	58196.44476
258.909	58196.44476
259.111	58196.44476
259.314	58196.44476
259.516	58196.44476
259.718	58196.44476
259.92	58196.44476
260.122	58196.44476
260.324	58196.44476
260.526	58196.44476
260.728	58196.44476
260.93	58196.44476
261.131	58196.44476
261.333	58196.44476
261.535	58196.44476
261.737	58196.44476
261.939	58196.44476
262.141	58196.44476
262.343	58196.44476
262.544	58196.44476
262.746	58196.44476
262.948	58196.44476
263.15	58196.44476
263.352	58196.44476
263.553	58196.44476
263.755	58196.44476
263.957	58196.44476
264.158	58196.44476
264.36	58196.44476
264.562	58196.44476
264.763	58196.44476
264.965	58196.44476
265.166	58196.44476
265.368	58196.44476
265.569	58196.44476
265.771	58196.44476
265.972	58196.44476
266.174	58196.44476
266.375	58196.44476
266.577	58196.44476
266.778	58196.44476
266.98	58196.44476
267.181	58196.44476
267.383	58196.44476
267.584	58196.44476
267.785	58196.44476
267.987	58196.44476
268.188	58196.44476
268.389	58196.44476
268.591	58196.44476
268.792	58196.44476
268.993	58196.44476
269.194	58196.44476
269.396	58196.44476
269.597	58196.44476
269.798	58196.44476
269.999	58196.44476
270.2	58196.44476
270.401	58196.44476
270.603	58196.44476
270.804	58196.44476
271.005	58196.44476
271.206	58196.44476
271.407	58196.44476
271.608	58196.44476
271.809	58196.44476
272.01	58196.44476
272.211	58196.44476
272.412	58196.44476
272.613	58196.44476
272.814	58196.44476
273.015	58196.44476
273.216	58196.44476
273.416	58196.44476
273.617	58196.44476
273.818	58196.44476
274.019	58196.44476
274.22	58196.44476
274.421	58196.44476
274.621	58196.44476
274.822	58196.44476
275.023	58196.44476
275.224	58196.44476
275.424	58196.44476
275.625	58196.44476
275.826	58196.44476
276.026	58196.44476
276.227	58196.44476
276.428	58196.44476
276.628	58196.44476
276.829	58196.44476
277.029	58196.44476
277.23	58196.44476
277.43	58196.44476
277.631	58196.44476
277.831	58196.44476
278.032	58196.44476
278.232	58196.44476
278.433	58196.44476
278.633	58196.44476
278.834	58196.44476
279.034	58196.44476
279.234	58196.44476
279.435	58196.44476
279.635	58196.44476
279.835	58196.44476
280.036	58196.44476
280.236	58196.44476
280.436	58196.44476
280.637	58196.44476
280.837	58196.44476
281.037	58196.44476
281.237	58196.44476
281.438	58196.44476
281.638	58196.44476
281.838	58196.44476
282.038	58196.44476
282.238	58196.44476
282.438	58196.44476
282.638	58196.44476
282.838	58196.44476
283.038	58196.44476
283.239	58196.44476
283.439	58196.44476
283.639	58196.44476
283.839	58196.44476
284.039	58196.44476
284.238	58196.44476
284.438	58196.44476
284.638	58196.44476
284.838	58196.44476
285.038	58196.44476
285.238	58196.44476
285.438	58196.44476
285.638	58196.44476
285.838	58196.44476
286.037	58196.44476
286.237	58196.44476
286.437	58196.44476
286.637	58196.44476
286.836	58196.44476
287.036	58196.44476
287.236	58196.44476
287.436	58196.44476
287.635	58196.44476
287.835	58196.44476
288.034	58196.44476
288.234	58196.44476
288.434	58196.44476
288.633	58196.44476
288.833	58196.44476
289.032	58196.44476
289.232	58196.44476
289.431	58196.44476
289.631	58196.44476
289.83	58196.44476
290.03	58196.44476
290.229	58196.44476
290.429	58196.44476
290.628	58196.44476
290.828	58196.44476
291.027	58196.44476
291.226	58196.44476
291.426	58196.44476
291.625	58196.44476
291.824	58196.44476
292.024	58196.44476
292.223	58196.44476
292.422	58196.44476
292.621	58196.44476
292.821	58196.44476
293.02	58196.44476
293.219	58196.44476
293.418	58196.44476
293.617	58196.44476
293.817	58196.44476
294.016	58196.44476
294.215	58196.44476
294.414	58196.44476
294.613	58196.44476
294.812	58196.44476
295.011	58196.44476
295.21	58196.44476
295.409	58196.44476
295.608	58196.44476
295.807	58196.44476
296.006	58196.44476
296.205	58196.44476
296.404	58196.44476
296.603	58196.44476
296.802	58196.44476
297.001	58196.44476
297.2	58196.44476
297.398	58196.44476
297.597	58196.44476
297.796	58196.44476
297.995	58196.44476
298.194	58196.44476
298.392	58196.44476
298.591	58196.44476
298.79	58196.44476
298.988	58196.44476
299.187	58196.44476
299.386	58196.44476
299.585	58196.44476
299.783	58196.44476
299.982	58196.44476
300.18	58196.44476
300.379	58196.44476
300.578	58196.44476
300.776	58196.44476
300.975	58196.44476
301.173	58196.44476
301.372	58196.44476
301.57	58196.44476
301.769	58196.44476
301.967	58196.44476
302.166	58196.44476
302.364	58196.44476
302.562	58196.44476
302.761	58196.44476
302.959	58196.44476
303.157	58196.44476
303.356	58196.44476
303.554	58196.44476
303.752	58196.44476
303.951	58196.44476
304.149	58196.44476
304.347	58196.44476
304.546	58196.44476
304.744	58196.44476
304.942	58196.44476
305.14	58196.44476
305.338	58196.44476
305.536	58196.44476
305.735	58196.44476
305.933	58196.44476
306.131	58196.44476
306.329	58196.44476
306.527	58196.44476
306.725	58196.44476
306.923	58196.44476
307.121	58196.44476
307.319	58196.44476
307.517	58196.44476
307.715	58196.44476
307.913	58196.44476
308.111	58196.44476
308.309	58196.44476
308.507	58196.44476
308.705	58196.44476
308.903	58196.44476
309.1	58196.44476
309.298	58196.44476
309.496	58196.44476
309.694	58196.44476
309.892	58196.44476
310.089	58196.44476
310.287	58196.44476
310.485	58196.44476
310.683	58196.44476
310.88	58196.44476
311.078	58196.44476
311.276	58196.44476
311.473	58196.44476
311.671	58196.44476
311.869	58196.44476
312.066	58196.44476
312.264	58196.44476
312.461	58196.44476
312.659	58196.44476
312.856	58196.44476
313.054	58196.44476
313.251	58196.44476
313.449	58196.44476
313.646	58196.44476
313.844	58196.44476
314.041	58196.44476
314.239	58196.44476
314.436	58196.44476
314.634	58196.44476
314.831	58196.44476
315.028	58196.44476
315.226	58196.44476
315.423	58196.44476
315.62	58196.44476
315.817	58196.44476
316.015	58196.44476
316.212	58196.44476
316.409	58196.44476
316.606	58196.44476
316.804	58196.44476
317.001	58196.44476
317.198	58196.44476
317.395	58196.44476
317.592	58196.44476
317.789	58196.44476
317.987	58196.44476
318.184	58196.44476
318.381	58196.44476
318.578	58196.44476
318.775	58196.44476
318.972	58196.44476
319.169	58196.44476
319.366	58196.44476
319.563	58196.44476
319.76	58196.44476
319.957	58196.44476
320.154	58196.44476
320.351	58196.44476
320.547	58196.44476
320.744	58196.44476
320.941	58196.44476
321.138	58196.44476
321.335	58196.44476
321.532	58196.44476
321.728	58196.44476
321.925	58196.44476
322.122	58196.44476
322.319	58196.44476
322.515	58196.44476
322.712	58196.44476
322.909	58196.44476
323.105	58196.44476
323.302	58196.44476
323.499	58196.44476
323.695	58196.44476
323.892	58196.44476
324.089	58196.44476
324.285	58196.44476
324.482	58196.44476
324.678	58196.44476
324.875	58196.44476
325.071	58196.44476
325.268	58196.44476
325.464	58196.44476
325.661	58196.44476
325.857	58196.44476
326.054	58196.44476
326.25	58196.44476
326.446	58196.44476
326.643	58196.44476
326.839	58196.44476
327.035	58196.44476
327.232	58196.44476
327.428	58196.44476
327.624	58196.44476
327.821	58196.44476
328.017	58196.44476
328.213	58196.44476
328.409	58196.44476
328.606	58196.44476
328.802	58196.44476
328.998	58196.44476
329.194	58196.44476
329.39	58196.44476
329.586	58196.44476
329.783	58196.44476
329.979	58196.44476
330.175	58196.44476
330.371	58196.44476
330.567	58196.44476
330.763	58196.44476
330.959	58196.44476
331.155	58196.44476
331.351	58196.44476
331.547	58196.44476
331.743	58196.44476
331.939	58196.44476
332.135	58196.44476
332.33	58196.44476
332.526	58196.44476
332.722	58196.44476
332.918	58196.44476
333.114	58196.44476
333.31	58196.44476
333.506	58196.44476
333.701	58196.44476
333.897	58196.44476
334.093	58196.44476
334.289	58196.44476
334.484	58196.44476
334.68	58196.44476
334.876	58196.44476
335.071	58196.44476
335.267	58196.44476
335.463	58196.44476
335.658	58196.44476
335.854	58196.44476
336.049	58196.44476
336.245	58196.44476
336.441	58196.44476
336.636	58196.44476
336.832	58196.44476
337.027	58196.44476
337.223	58196.44476
337.418	58196.44476
337.613	58196.44476
337.809	58196.44476
338.004	58196.44476
338.2	58196.44476
338.395	58196.44476
338.591	58196.44476
338.786	58196.44476
338.981	58196.44476
339.177	58196.44476
339.372	58196.44476
339.567	58196.44476
339.762	58196.44476
339.958	58196.44476
340.153	58196.44476
340.348	58196.44476
340.543	58196.44476
340.739	58196.44476
340.934	58196.44476
341.129	58196.44476
341.324	58196.44476
341.519	58196.44476
341.714	58196.44476
341.909	58196.44476
342.104	58196.44476
342.299	58196.44476
342.495	58196.44476
342.69	58196.44476
342.885	58196.44476
343.08	58196.44476
343.275	58196.44476
343.469	58196.44476
343.664	58196.44476
343.859	58196.44476
344.054	58196.44476
344.249	58196.44476
344.444	58196.44476
344.639	58196.44476
344.834	58196.44476
345.029	58196.44476
345.223	58196.44476
345.418	58196.44476
345.613	58196.44476
345.808	58196.44476
346.003	58196.44476
346.197	58196.44476
346.392	58196.44476
346.587	58196.44476
346.781	58196.44476
346.976	58196.44476
347.171	58196.44476
347.365	58196.44476
347.56	58196.44476
347.755	58196.44476
347.949	58196.44476
348.144	58196.44476
348.338	58196.44476
348.533	58196.44476
348.727	58196.44476
348.922	58196.44476
349.116	58196.44476
349.311	58196.44476
349.505	58196.44476
349.7	58196.44476
349.894	58196.44476
350.089	58196.44476
350.283	58196.44476
350.477	58196.44476
350.672	58196.44476
350.866	58196.44476
351.06	58196.44476
351.255	58196.44476
351.449	58196.44476
351.643	58196.44476
351.837	58196.44476
352.032	58196.44476
352.226	58196.44476
352.42	58196.44476
352.614	58196.44476
352.809	58196.44476
353.003	58196.44476
353.197	58196.44476
353.391	58196.44476
353.585	58196.44476
353.779	58196.44476
353.973	58196.44476
354.167	58196.44476
354.361	58196.44476
354.555	58196.44476
354.749	58196.44476
354.943	58196.44476
355.137	58196.44476
355.331	58196.44476
355.525	58196.44476
355.719	58196.44476
355.913	58196.44476
356.107	58196.44476
356.301	58196.44476
356.495	58196.44476
356.689	58196.44476
356.883	58196.44476
357.076	58196.44476
357.27	58196.44476
357.464	58196.44476
357.658	58196.44476
357.852	58196.44476
358.045	58196.44476
358.239	58196.44476
358.433	58196.44476
358.626	58196.44476
358.82	58196.44476
359.014	58196.44476
359.207	58196.44476
359.401	58196.44476
359.595	58196.44476
359.788	58196.44476
359.982	58196.44476
360.175	58196.44476
360.369	58196.44476
360.563	58196.44476
360.756	58196.44476
360.95	58196.44476
361.143	58196.44476
361.336	58196.44476
361.53	58196.44476
361.723	58196.44476
361.917	58196.44476
362.11	58196.44476
362.304	58196.44476
362.497	58196.44476
362.69	58196.44476
362.884	58196.44476
363.077	58196.44476
363.27	58196.44476
363.464	58196.44476
363.657	58196.44476
363.85	58196.44476
364.043	58196.44476
364.237	58196.44476
364.43	58196.44476
364.623	58196.44476
364.816	58196.44476
365.009	58196.44476
365.202	58196.44476
365.396	58196.44476
365.589	58196.44476
365.782	58196.44476
365.975	58196.44476
366.168	58196.44476
366.361	58196.44476
366.554	58196.44476
366.747	58196.44476
366.94	58196.44476
367.133	58196.44476
367.326	58196.44476
367.519	58196.44476
367.712	58196.44476
367.905	58196.44476
368.098	58196.44476
368.291	58196.44476
368.484	58196.44476
368.676	58196.44476
368.869	58196.44476
369.062	58196.44476
369.255	58196.44476
369.448	58196.44476
369.64	58196.44476
369.833	58196.44476
370.026	58196.44476
370.219	58196.44476
370.411	58196.44476
370.604	58196.44476
370.797	58196.44476
370.989	58196.44476
371.182	58196.44476
371.375	58196.44476
371.567	58196.44476
371.76	58196.44476
371.952	58196.44476
372.145	58196.44476
372.338	58196.44476
372.53	58196.44476
372.723	58196.44476
372.915	58196.44476
373.108	58196.44476
373.3	58196.44476
373.493	58196.44476
373.685	58196.44476
373.877	58196.44476
374.07	58196.44476
374.262	58196.44476
374.455	58196.44476
374.647	58196.44476
374.839	58196.44476
375.032	58196.44476
375.224	58196.44476
375.416	58196.44476
375.609	58196.44476
375.801	58196.44476
375.993	58196.44476
376.185	58196.44476
376.378	58196.44476
376.57	58196.44476
376.762	58196.44476
376.954	58196.44476
377.146	58196.44476
377.338	58196.44476
377.53	58196.44476
377.723	58196.44476
377.915	58196.44476
378.107	58196.44476
378.299	58196.44476
378.491	58196.44476
378.683	58196.44476
378.875	58196.44476
379.067	58196.44476
379.259	58196.44476
379.451	58196.44476
379.643	58196.44476
379.835	58196.44476
380.027	58196.44476
380.219	58196.44476
380.41	58196.44476
380.602	58196.44476
380.794	58196.44476
380.986	58196.44476
381.178	58196.44476
381.37	58196.44476
381.561	58196.44476
381.753	58196.44476
381.945	58196.44476
382.137	58196.44476
382.328	58196.44476
382.52	58196.44476
382.712	58196.44476
382.903	58196.44476
383.095	58196.44476
383.287	58196.44476
383.478	58196.44476
383.67	58196.44476
383.862	58196.44476
384.053	58196.44476
384.245	58196.44476
384.436	58196.44476
384.628	58196.44476
384.819	58196.44476
385.011	58196.44476
385.202	58196.44476
385.394	58196.44476
385.585	58196.44476
385.777	58196.44476
385.968	58196.44476
386.159	58196.44476
386.351	58196.44476
386.542	58196.44476
386.734	58196.44476
386.925	58196.44476
387.116	58196.44476
387.308	58196.44476
387.499	58196.44476
387.69	58196.44476
387.881	58196.44476
388.073	58196.44476
388.264	58196.44476
388.455	58196.44476
388.646	58196.44476
388.837	58196.44476
389.029	58196.44476
389.22	58196.44476
389.411	58196.44476
389.602	58196.44476
389.793	58196.44476
389.984	58196.44476
390.175	58196.44476
390.366	58196.44476
390.557	58196.44476
390.748	58196.44476
390.939	58196.44476
391.13	58196.44476
391.321	58196.44476
391.512	58196.44476
391.703	58196.44476
391.894	58196.44476
392.085	58196.44476
392.276	58196.44476
392.467	58196.44476
392.658	58196.44476
392.849	58196.44476
393.039	58196.44476
393.23	58196.44476
393.421	58196.44476
393.612	58196.44476
393.803	58196.44476
393.993	58196.44476
394.184	58196.44476
394.375	58196.44476
394.566	58196.44476
394.756	58196.44476
394.947	58196.44476
395.138	58196.44476
395.328	58196.44476
395.519	58196.44476
395.709	58196.44476
395.9	58196.44476
396.091	58196.44476
396.281	58196.44476
396.472	58196.44476
396.662	58196.44476
396.853	58196.44476
397.043	58196.44476
397.234	58196.44476
397.424	58196.44476
397.615	58196.44476
397.805	58196.44476
397.996	58196.44476
398.186	58196.44476
398.376	58196.44476
398.567	58196.44476
398.757	58196.44476
398.947	58196.44476
399.138	58196.44476
399.328	58196.44476
399.518	58196.44476
399.709	58196.44476
399.899	58196.44476
400.089	58196.44476
400.279	58196.44476
400.47	58196.44476
400.66	58196.44476
400.85	58196.44476
401.04	58196.44476
401.23	58196.44476
401.421	58196.44476
401.611	58196.44476
401.801	58196.44476
401.991	58196.44476
402.181	58196.44476
402.371	58196.44476
402.561	58196.44476
402.751	58196.44476
402.941	58196.44476
403.131	58196.44476
403.321	58196.44476
403.511	58196.44476
403.701	58196.44476
403.891	58196.44476
404.081	58196.44476
404.271	58196.44476
404.461	58196.44476
404.651	58196.44476
404.84	58196.44476
405.03	58196.44476
405.22	58196.44476
405.41	58196.44476
405.6	58196.44476
405.789	58196.44476
405.979	58196.44476
406.169	58196.44476
406.359	58196.44476
406.548	58196.44476
406.738	58196.44476
406.928	58196.44476
407.118	58196.44476
407.307	58196.44476
407.497	58196.44476
407.686	58196.44476
407.876	58196.44476
408.066	58196.44476
408.255	58196.44476
408.445	58196.44476
408.634	58196.44476
408.824	58196.44476
409.013	58196.44476
409.203	58196.44476
409.392	58196.44476
409.582	58196.44476
409.771	58196.44476
409.961	58196.44476
410.15	58196.44476
410.34	58196.44476
410.529	58196.44476
410.718	58196.44476
410.908	58196.44476
411.097	58196.44476
411.286	58196.44476
411.476	58196.44476
411.665	58196.44476
411.854	58196.44476
412.044	58196.44476
412.233	58196.44476
412.422	58196.44476
412.611	58196.44476
412.8	58196.44476
412.99	58196.44476
413.179	58196.44476
413.368	58196.44476
413.557	58196.44476
413.746	58196.44476
413.935	58196.44476
414.124	58196.44476
414.313	58196.44476
414.503	58196.44476
414.692	58196.44476
414.881	58196.44476
415.07	58196.44476
415.259	58196.44476
415.448	58196.44476
415.637	58196.44476
415.826	58196.44476
416.015	58196.44476
416.203	58196.44476
416.392	58196.44476
416.581	58196.44476
416.77	58196.44476
416.959	58196.44476
417.148	58196.44476
417.337	58196.44476
417.525	58196.44476
417.714	58196.44476
417.903	58196.44476
418.092	58196.44476
418.281	58196.44476
418.469	58196.44476
418.658	58196.44476
418.847	58196.44476
419.035	58196.44476
419.224	58196.44476
419.413	58196.44476
419.601	58196.44476
419.79	58196.44476
419.979	58196.44476
420.167	58196.44476
420.356	58196.44476
420.544	58196.44476
420.733	58196.44476
420.921	58196.44476
421.11	58196.44476
421.299	58196.44476
421.487	58196.44476
421.675	58196.44476
421.864	58196.44476
422.052	58196.44476
422.241	58196.44476
422.429	58196.44476
422.618	58196.44476
422.806	58196.44476
422.994	58196.44476
423.183	58196.44476
423.371	58196.44476
423.559	58196.44476
423.748	58196.44476
423.936	58196.44476
424.124	58196.44476
424.312	58196.44476
424.501	58196.44476
424.689	58196.44476
424.877	58196.44476
425.065	58196.44476
425.254	58196.44476
425.442	58196.44476
425.63	58196.44476
425.818	58196.44476
426.006	58196.44476
426.194	58196.44476
426.382	58196.44476
426.57	58196.44476
426.758	58196.44476
426.946	58196.44476
427.134	58196.44476
427.323	58196.44476
427.51	58196.44476
427.698	58196.44476
427.886	58196.44476
428.074	58196.44476
428.262	58196.44476
428.45	58196.44476
428.638	58196.44476
428.826	58196.44476
429.014	58196.44476
429.202	58196.44476
429.39	58196.44476
429.577	58196.44476
429.765	58196.44476
429.953	58196.44476
430.141	58196.44476
430.329	58196.44476
430.516	58196.44476
430.704	58196.44476
430.892	58196.44476
431.079	58196.44476
431.267	58196.44476
431.455	58196.44476
431.643	58196.44476
431.83	58196.44476
432.018	58196.44476
432.205	58196.44476
432.393	58196.44476
432.581	58196.44476
432.768	58196.44476
432.956	58196.44476
433.143	58196.44476
433.331	58196.44476
433.518	58196.44476
433.706	58196.44476
433.893	58196.44476
434.081	58196.44476
434.268	58196.44476
434.456	58196.44476
434.643	58196.44476
434.83	58196.44476
435.018	58196.44476
435.205	58196.44476
435.392	58196.44476
435.58	58196.44476
435.767	58196.44476
435.954	58196.44476
436.142	58196.44476
436.329	58196.44476
436.516	58196.44476
436.703	58196.44476
436.891	58196.44476
437.078	58196.44476
437.265	58196.44476
437.452	58196.44476
437.639	58196.44476
437.827	58196.44476
438.014	58196.44476
438.201	58196.44476
438.388	58196.44476
438.575	58196.44476
438.762	58196.44476
438.949	58196.44476
439.136	58196.44476
439.323	58196.44476
439.51	58196.44476
439.697	58196.44476
439.884	58196.44476
440.071	58196.44476
440.258	58196.44476
440.445	58196.44476
440.632	58196.44476
440.819	58196.44476
441.006	58196.44476
441.193	58196.44476
441.38	58196.44476
441.566	58196.44476
441.753	58196.44476
441.94	58196.44476
442.127	58196.44476
442.314	58196.44476
442.5	58196.44476
442.687	58196.44476
442.874	58196.44476
443.061	58196.44476
443.247	58196.44476
443.434	58196.44476
443.621	58196.44476
443.807	58196.44476
443.994	58196.44476
444.181	58196.44476
444.367	58196.44476
444.554	58196.44476
444.74	58196.44476
444.927	58196.44476
445.114	58196.44476
445.3	58196.44476
445.487	58196.44476
445.673	58196.44476
445.86	58196.44476
446.046	58196.44476
446.233	58196.44476
446.419	58196.44476
446.605	58196.44476
446.792	58196.44476
446.978	58196.44476
447.165	58196.44476
447.351	58196.44476
447.537	58196.44476
447.724	58196.44476
447.91	58196.44476
448.096	58196.44476
448.283	58196.44476
448.469	58196.44476
448.655	58196.44476
448.841	58196.44476
449.028	58196.44476
449.214	58196.44476
449.4	58196.44476
449.586	58196.44476
449.773	58196.44476
449.959	58196.44476
450.145	58196.44476
450.331	58196.44476
450.517	58196.44476
450.703	58196.44476
450.889	58196.44476
451.075	58196.44476
451.261	58196.44476
451.447	58196.44476
451.633	58196.44476
451.819	58196.44476
452.005	58196.44476
452.191	58196.44476
452.377	58196.44476
452.563	58196.44476
452.749	58196.44476
452.935	58196.44476
453.121	58196.44476
453.307	58196.44476
453.493	58196.44476
453.679	58196.44476
453.865	58196.44476
454.05	58196.44476
454.236	58196.44476
454.422	58196.44476
454.608	58196.44476
454.794	58196.44476
454.979	58196.44476
455.165	58196.44476
455.351	58196.44476
455.537	58196.44476
455.722	58196.44476
455.908	58196.44476
456.094	58196.44476
456.279	58196.44476
456.465	58196.44476
456.65	58196.44476
456.836	58196.44476
457.022	58196.44476
457.207	58196.44476
457.393	58196.44476
457.578	58196.44476
457.764	58196.44476
457.949	58196.44476
458.135	58196.44476
458.32	58196.44476
458.506	58196.44476
458.691	58196.44476
458.877	58196.44476
459.062	58196.44476
459.248	58196.44476
459.433	58196.44476
459.618	58196.44476
459.804	58196.44476
459.989	58196.44476
460.174	58196.44476
460.36	58196.44476
460.545	58196.44476
460.73	58196.44476
460.915	58196.44476
461.101	58196.44476
461.286	58196.44476
461.471	58196.44476
461.656	58196.44476
461.842	58196.44476
462.027	58196.44476
462.212	58196.44476
462.397	58196.44476
462.582	58196.44476
462.767	58196.44476
462.952	58196.44476
463.138	58196.44476
463.323	58196.44476
463.508	58196.44476
463.693	58196.44476
463.878	58196.44476
464.063	58196.44476
464.248	58196.44476
464.433	58196.44476
464.618	58196.44476
464.803	58196.44476
464.988	58196.44476
465.173	58196.44476
465.357	58196.44476
465.542	58196.44476
465.727	58196.44476
465.912	58196.44476
466.097	58196.44476
466.282	58196.44476
466.467	58196.44476
466.651	58196.44476
466.836	58196.44476
467.021	58196.44476
467.206	58196.44476
467.391	58196.44476
467.575	58196.44476
467.76	58196.44476
467.945	58196.44476
468.129	58196.44476
468.314	58196.44476
468.499	58196.44476
468.683	58196.44476
468.868	58196.44476
469.053	58196.44476
469.237	58196.44476
469.422	58196.44476
469.606	58196.44476
469.791	58196.44476
469.975	58196.44476
470.16	58196.44476
470.344	58196.44476
470.529	58196.44476
470.713	58196.44476
470.898	58196.44476
471.082	58196.44476
471.267	58196.44476
471.451	58196.44476
471.636	58196.44476
471.82	58196.44476
472.004	58196.44476
472.189	58196.44476
472.373	58196.44476
472.557	58196.44476
472.742	58196.44476
472.926	58196.44476
473.11	58196.44476
473.295	58196.44476
473.479	58196.44476
473.663	58196.44476
473.847	58196.44476
474.031	58196.44476
474.216	58196.44476
474.4	58196.44476
474.584	58196.44476
474.768	58196.44476
474.952	58196.44476
475.136	58196.44476
475.32	58196.44476
475.505	58196.44476
475.689	58196.44476
475.873	58196.44476
476.057	58196.44476
476.241	58196.44476
476.425	58196.44476
476.609	58196.44476
476.793	58196.44476
476.977	58196.44476
477.161	58196.44476
477.345	58196.44476
477.529	58196.44476
477.713	58196.44476
477.896	58196.44476
478.08	58196.44476
478.264	58196.44476
478.448	58196.44476
478.632	58196.44476
478.816	58196.44476
478.999	58196.44476
479.183	58196.44476
479.367	58196.44476
479.551	58196.44476
479.735	58196.44476
479.918	58196.44476
480.102	58196.44476
480.286	58196.44476
480.469	58196.44476
480.653	58196.44476
480.837	58196.44476
481.02	58196.44476
481.204	58196.44476
481.388	58196.44476
481.571	58196.44476
481.755	58196.44476
481.938	58196.44476
482.122	58196.44476
482.305	58196.44476
482.489	58196.44476
482.673	58196.44476
482.856	58196.44476
483.04	58196.44476
483.223	58196.44476
483.406	58196.44476
483.59	58196.44476
483.773	58196.44476
483.957	58196.44476
484.14	58196.44476
484.323	58196.44476
484.507	58196.44476
484.69	58196.44476
484.874	58196.44476
485.057	58196.44476
485.24	58196.44476
485.423	58196.44476
485.607	58196.44476
485.79	58196.44476
485.973	58196.44476
486.156	58196.44476
486.34	58196.44476
486.523	58196.44476
486.706	58196.44476
486.889	58196.44476
487.072	58196.44476
487.256	58196.44476
487.439	58196.44476
487.622	58196.44476
487.805	58196.44476
487.988	58196.44476
488.171	58196.44476
488.354	58196.44476
488.537	58196.44476
488.72	58196.44476
488.903	58196.44476
489.086	58196.44476
489.269	58196.44476
489.452	58196.44476
489.635	58196.44476
489.818	58196.44476
490.001	58196.44476
490.184	58196.44476
490.367	58196.44476
490.55	58196.44476
490.732	58196.44476
490.915	58196.44476
491.098	58196.44476
491.281	58196.44476
491.464	58196.44476
491.647	58196.44476
491.829	58196.44476
492.012	58196.44476
492.195	58196.44476
492.378	58196.44476
492.56	58196.44476
492.743	58196.44476
492.926	58196.44476
493.108	58196.44476
493.291	58196.44476
493.474	58196.44476
493.656	58196.44476
493.839	58196.44476
494.022	58196.44476
494.204	58196.44476
494.387	58196.44476
494.569	58196.44476
494.752	58196.44476
494.934	58196.44476
495.117	58196.44476
495.299	58196.44476
495.482	58196.44476
495.664	58196.44476
495.847	58196.44476
496.029	58196.44476
496.212	58196.44476
496.394	58196.44476
496.576	58196.44476
496.759	58196.44476
496.941	58196.44476
497.123	58196.44476
497.306	58196.44476
497.488	58196.44476
497.67	58196.44476
497.853	58196.44476
498.035	58196.44476
498.217	58196.44476
498.4	58196.44476
498.582	58196.44476
498.764	58196.44476
498.946	58196.44476
499.128	58196.44476
499.311	58196.44476
499.493	58196.44476
499.675	58196.44476
499.857	58196.44476
500.039	58196.44476
500.221	58196.44476
500.403	58196.44476
500.585	58196.44476
500.767	58196.44476
500.949	58196.44476
501.132	58196.44476
501.314	58196.44476
501.496	58196.44476
501.678	58196.44476
501.859	58196.44476
502.041	58196.44476
502.223	58196.44476
502.405	58196.44476
502.587	58196.44476
502.769	58196.44476
502.951	58196.44476
503.133	58196.44476
503.315	58196.44476
503.497	58196.44476
503.678	58196.44476
503.86	58196.44476
504.042	58196.44476
504.224	58196.44476
504.406	58196.44476
504.587	58196.44476
504.769	58196.44476
504.951	58196.44476
505.132	58196.44476
505.314	58196.44476
505.496	58196.44476
505.678	58196.44476
505.859	58196.44476
506.041	58196.44476
506.222	58196.44476
506.404	58196.44476
506.586	58196.44476
506.767	58196.44476
506.949	58196.44476
507.13	58196.44476
507.312	58196.44476
507.493	58196.44476
507.675	58196.44476
507.856	58196.44476
508.038	58196.44476
508.219	58196.44476
508.401	58196.44476
508.582	58196.44476
508.764	58196.44476
508.945	58196.44476
509.126	58196.44476
509.308	58196.44476
509.489	58196.44476
509.671	58196.44476
509.852	58196.44476
510.033	58196.44476
510.214	58196.44476
510.396	58196.44476
510.577	58196.44476
510.758	58196.44476
510.94	58196.44476
511.121	58196.44476
511.302	58196.44476
511.483	58196.44476
511.664	58196.44476
511.846	58196.44476
512.027	58196.44476
512.208	58196.44476
512.389	58196.44476
512.57	58196.44476
512.751	58196.44476
512.932	58196.44476
513.113	58196.44476
513.294	58196.44476
513.476	58196.44476
513.657	58196.44476
513.838	58196.44476
514.019	58196.44476
514.2	58196.44476
514.381	58196.44476
514.561	58196.44476
514.742	58196.44476
514.923	58196.44476
515.104	58196.44476
515.285	58196.44476
515.466	58196.44476
515.647	58196.44476
515.828	58196.44476
516.009	58196.44476
516.189	58196.44476
516.37	58196.44476
516.551	58196.44476
516.732	58196.44476
516.913	58196.44476
517.093	58196.44476
517.274	58196.44476
517.455	58196.44476
517.636	58196.44476
517.816	58196.44476
517.997	58196.44476
518.178	58196.44476
518.358	58196.44476
518.539	58196.44476
518.72	58196.44476
518.9	58196.44476
519.081	58196.44476
519.261	58196.44476
519.442	58196.44476
519.622	58196.44476
519.803	58196.44476
519.984	58196.44476
520.164	58196.44476
520.345	58196.44476
520.525	58196.44476
520.705	58196.44476
520.886	58196.44476
521.066	58196.44476
521.247	58196.44476
521.427	58196.44476
521.608	58196.44476
521.788	58196.44476
521.968	58196.44476
522.149	58196.44476
522.329	58196.44476
522.509	58196.44476
522.69	58196.44476
522.87	58196.44476
523.05	58196.44476
523.231	58196.44476
523.411	58196.44476
523.591	58196.44476
523.771	58196.44476
523.951	58196.44476
524.132	58196.44476
524.312	58196.44476
524.492	58196.44476
524.672	58196.44476
524.852	58196.44476
525.032	58196.44476
525.213	58196.44476
525.393	58196.44476
525.573	58196.44476
525.753	58196.44476
525.933	58196.44476
526.113	58196.44476
526.293	58196.44476
526.473	58196.44476
526.653	58196.44476
526.833	58196.44476
527.013	58196.44476
527.193	58196.44476
527.373	58196.44476
527.553	58196.44476
527.733	58196.44476
527.913	58196.44476
528.092	58196.44476
528.272	58196.44476
528.452	58196.44476
528.632	58196.44476
528.812	58196.44476
528.992	58196.44476
529.171	58196.44476
529.351	58196.44476
529.531	58196.44476
529.711	58196.44476
529.89	58196.44476
530.07	58196.44476
530.25	58196.44476
530.43	58196.44476
530.609	58196.44476
530.789	58196.44476
530.969	58196.44476
531.148	58196.44476
531.328	58196.44476
531.507	58196.44476
531.687	58196.44476
531.867	58196.44476
532.046	58196.44476
532.226	58196.44476
532.405	58196.44476
532.585	58196.44476
532.764	58196.44476
532.944	58196.44476
533.123	58196.44476
533.303	58196.44476
533.482	58196.44476
533.662	58196.44476
533.841	58196.44476
534.021	58196.44476
534.2	58196.44476
534.379	58196.44476
534.559	58196.44476
534.738	58196.44476
534.917	58196.44476
535.097	58196.44476
535.276	58196.44476
535.455	58196.44476
535.635	58196.44476
535.814	58196.44476
535.993	58196.44476
536.172	58196.44476
536.352	58196.44476
536.531	58196.44476
536.71	58196.44476
536.889	58196.44476
537.068	58196.44476
537.248	58196.44476
537.427	58196.44476
537.606	58196.44476
537.785	58196.44476
537.964	58196.44476
538.143	58196.44476
538.322	58196.44476
538.501	58196.44476
538.68	58196.44476
538.859	58196.44476
539.038	58196.44476
539.217	58196.44476
539.396	58196.44476
539.575	58196.44476
539.754	58196.44476
539.933	58196.44476
540.112	58196.44476
540.291	58196.44476
540.47	58196.44476
540.649	58196.44476
540.828	58196.44476
541.007	58196.44476
541.186	58196.44476
541.364	58196.44476
541.543	58196.44476
541.722	58196.44476
541.901	58196.44476
542.08	58196.44476
542.258	58196.44476
542.437	58196.44476
542.616	58196.44476
542.795	58196.44476
542.973	58196.44476
543.152	58196.44476
543.331	58196.44476
543.509	58196.44476
543.688	58196.44476
543.867	58196.44476
544.045	58196.44476
544.224	58196.44476
544.402	58196.44476
544.581	58196.44476
544.76	58196.44476
544.938	58196.44476
545.117	58196.44476
545.295	58196.44476
545.474	58196.44476
545.652	58196.44476
545.831	58196.44476
546.009	58196.44476
546.188	58196.44476
546.366	58196.44476
546.544	58196.44476
546.723	58196.44476
546.901	58196.44476
547.08	58196.44476
547.258	58196.44476
547.436	58196.44476
547.615	58196.44476
547.793	58196.44476
547.971	58196.44476
548.15	58196.44476
548.328	58196.44476
548.506	58196.44476
548.684	58196.44476
548.863	58196.44476
549.041	58196.44476
549.219	58196.44476
549.397	58196.44476
549.576	58196.44476
549.754	58196.44476
549.932	58196.44476
550.11	58196.44476
550.288	58196.44476
550.466	58196.44476
550.644	58196.44476
550.822	58196.44476
551.001	58196.44476
551.179	58196.44476
551.357	58196.44476
551.535	58196.44476
551.713	58196.44476
551.891	58196.44476
552.069	58196.44476
552.247	58196.44476
552.425	58196.44476
552.603	58196.44476
552.781	58196.44476
552.958	58196.44476
553.136	58196.44476
553.314	58196.44476
553.492	58196.44476
553.67	58196.44476
553.848	58196.44476
554.026	58196.44476
554.204	58196.44476
554.381	58196.44476
554.559	58196.44476
554.737	58196.44476
554.915	58196.44476
555.092	58196.44476
555.27	58196.44476
555.448	58196.44476
555.626	58196.44476
555.803	58196.44476
555.981	58196.44476
556.159	58196.44476
556.336	58196.44476
556.514	58196.44476
556.692	58196.44476
556.869	58196.44476
557.047	58196.44476
557.224	58196.44476
557.402	58196.44476
557.58	58196.44476
557.757	58196.44476
557.935	58196.44476
558.112	58196.44476
558.29	58196.44476
558.467	58196.44476
558.645	58196.44476
558.822	58196.44476
559	58196.44476
559.177	58196.44476
559.354	58196.44476
559.532	58196.44476
559.709	58196.44476
559.887	58196.44476
560.064	58196.44476
560.241	58196.44476
560.419	58196.44476
560.596	58196.44476
560.773	58196.44476
560.951	58196.44476
561.128	58196.44476
561.305	58196.44476
561.482	58196.44476
561.66	58196.44476
561.837	58196.44476
562.014	58196.44476
562.191	58196.44476
562.368	58196.44476
562.546	58196.44476
562.723	58196.44476
562.9	58196.44476
563.077	58196.44476
563.254	58196.44476
563.431	58196.44476
563.608	58196.44476
563.785	58196.44476
563.962	58196.44476
564.139	58196.44476
564.317	58196.44476
564.494	58196.44476
564.671	58196.44476
564.848	58196.44476
565.025	58196.44476
565.201	58196.44476
565.378	58196.44476
565.555	58196.44476
565.732	58196.44476
565.909	58196.44476
566.086	58196.44476
566.263	58196.44476
566.44	58196.44476
566.617	58196.44476
566.794	58196.44476
566.97	58196.44476
567.147	58196.44476
567.324	58196.44476
567.501	58196.44476
567.678	58196.44476
567.854	58196.44476
568.031	58196.44476
568.208	58196.44476
568.384	58196.44476
568.561	58196.44476
568.738	58196.44476
568.915	58196.44476
569.091	58196.44476
569.268	58196.44476
569.444	58196.44476
569.621	58196.44476
569.798	58196.44476
569.974	58196.44476
570.151	58196.44476
570.327	58196.44476
570.504	58196.44476
570.681	58196.44476
570.857	58196.44476
571.034	58196.44476
571.21	58196.44476
571.387	58196.44476
571.563	58196.44476
571.739	58196.44476
571.916	58196.44476
572.092	58196.44476
572.269	58196.44476
572.445	58196.44476
572.622	58196.44476
572.798	58196.44476
572.974	58196.44476
573.151	58196.44476
573.327	58196.44476
573.503	58196.44476
573.68	58196.44476
573.856	58196.44476
574.032	58196.44476
574.208	58196.44476
574.385	58196.44476
574.561	58196.44476
574.737	58196.44476
574.913	58196.44476
575.089	58196.44476
575.266	58196.44476
575.442	58196.44476
575.618	58196.44476
575.794	58196.44476
575.97	58196.44476
576.146	58196.44476
576.322	58196.44476
576.499	58196.44476
576.675	58196.44476
576.851	58196.44476
577.027	58196.44476
577.203	58196.44476
577.379	58196.44476
577.555	58196.44476
577.731	58196.44476
577.907	58196.44476
578.083	58196.44476
578.259	58196.44476
578.435	58196.44476
578.611	58196.44476
578.786	58196.44476
578.962	58196.44476
579.138	58196.44476
579.314	58196.44476
579.49	58196.44476
579.666	58196.44476
579.842	58196.44476
580.017	58196.44476
580.193	58196.44476
580.369	58196.44476
580.545	58196.44476
580.72	58196.44476
580.896	58196.44476
581.072	58196.44476
581.248	58196.44476
581.423	58196.44476
581.599	58196.44476
581.775	58196.44476
581.95	58196.44476
582.126	58196.44476
582.302	58196.44476
582.477	58196.44476
582.653	58196.44476
582.829	58196.44476
583.004	58196.44476
583.18	58196.44476
583.355	58196.44476
583.531	58196.44476
583.706	58196.44476
583.882	58196.44476
584.057	58196.44476
584.233	58196.44476
584.408	58196.44476
584.584	58196.44476
584.759	58196.44476
584.935	58196.44476
585.11	58196.44476
585.285	58196.44476
585.461	58196.44476
585.636	58196.44476
585.812	58196.44476
585.987	58196.44476
586.162	58196.44476
586.338	58196.44476
586.513	58196.44476
586.688	58196.44476
586.863	58196.44476
587.039	58196.44476
587.214	58196.44476
587.389	58196.44476
587.564	58196.44476
587.74	58196.44476
587.915	58196.44476
588.09	58196.44476
588.265	58196.44476
588.44	58196.44476
588.615	58196.44476
588.791	58196.44476
588.966	58196.44476
589.141	58196.44476
589.316	58196.44476
589.491	58196.44476
589.666	58196.44476
589.841	58196.44476
590.016	58196.44476
590.191	58196.44476
590.366	58196.44476
590.541	58196.44476
590.716	58196.44476
590.891	58196.44476
591.066	58196.44476
591.241	58196.44476
591.416	58196.44476
591.591	58196.44476
591.766	58196.44476
591.941	58196.44476
592.116	58196.44476
592.29	58196.44476
592.465	58196.44476
592.64	58196.44476
592.815	58196.44476
592.99	58196.44476
593.165	58196.44476
593.339	58196.44476
593.514	58196.44476
593.689	58196.44476
593.864	58196.44476
594.038	58196.44476
594.213	58196.44476
594.388	58196.44476
594.562	58196.44476
594.737	58196.44476
594.912	58196.44476
595.086	58196.44476
595.261	58196.44476
595.436	58196.44476
595.61	58196.44476
595.785	58196.44476
595.959	58196.44476
596.134	58196.44476
596.309	58196.44476
596.483	58196.44476
596.658	58196.44476
596.832	58196.44476
597.007	58196.44476
597.181	58196.44476
597.356	58196.44476
597.53	58196.44476
597.704	58196.44476
597.879	58196.44476
598.053	58196.44476
598.228	58196.44476
598.402	58196.44476
598.576	58196.44476
598.751	58196.44476
598.925	58196.44476
599.1	58196.44476
599.274	58196.44476
599.448	58196.44476
599.622	58196.44476
599.797	58196.44476
599.971	58196.44476
600.145	58196.44476
600.32	58196.44476
600.494	58196.44476
600.668	58196.44476
600.842	58196.44476
601.016	58196.44476
601.191	58196.44476
601.365	58196.44476
601.539	58196.44476
601.713	58196.44476
601.887	58196.44476
602.061	58196.44476
602.235	58196.44476
602.409	58196.44476
602.583	58196.44476
602.758	58196.44476
602.932	58196.44476
603.106	58196.44476
603.28	58196.44476
603.454	58196.44476
603.628	58196.44476
603.802	58196.44476
603.976	58196.44476
604.149	58196.44476
604.323	58196.44476
604.497	58196.44476
604.671	58196.44476
604.845	58196.44476
605.019	58196.44476
605.193	58196.44476
605.367	58196.44476
605.541	58196.44476
605.714	58196.44476
605.888	58196.44476
606.062	58196.44476
606.236	58196.44476
606.41	58196.44476
606.583	58196.44476
606.757	58196.44476
606.931	58196.44476
607.105	58196.44476
607.278	58196.44476
607.452	58196.44476
607.626	58196.44476
607.799	58196.44476
607.973	58196.44476
608.147	58196.44476
608.32	58196.44476
608.494	58196.44476
608.668	58196.44476
608.841	58196.44476
609.015	58196.44476
609.188	58196.44476
609.362	58196.44476
609.535	58196.44476
609.709	58196.44476
609.882	58196.44476
610.056	58196.44476
610.229	58196.44476
610.403	58196.44476
610.576	58196.44476
610.75	58196.44476
610.923	58196.44476
611.097	58196.44476
611.27	58196.44476
611.443	58196.44476
611.617	58196.44476
611.79	58196.44476
611.963	58196.44476
612.137	58196.44476
612.31	58196.44476
612.483	58196.44476
612.657	58196.44476
612.83	58196.44476
613.003	58196.44476
613.177	58196.44476
613.35	58196.44476
613.523	58196.44476
613.696	58196.44476
613.869	58196.44476
614.043	58196.44476
614.216	58196.44476
614.389	58196.44476
614.562	58196.44476
614.735	58196.44476
614.908	58196.44476
615.082	58196.44476
615.255	58196.44476
615.428	58196.44476
615.601	58196.44476
615.774	58196.44476
615.947	58196.44476
616.12	58196.44476
616.293	58196.44476
616.466	58196.44476
616.639	58196.44476
616.812	58196.44476
616.985	58196.44476
617.158	58196.44476
617.331	58196.44476
617.504	58196.44476
617.677	58196.44476
617.85	58196.44476
618.022	58196.44476
618.195	58196.44476
618.368	58196.44476
618.541	58196.44476
618.714	58196.44476
618.887	58196.44476
619.059	58196.44476
619.232	58196.44476
619.405	58196.44476
619.578	58196.44476
619.751	58196.44476
619.923	58196.44476
620.096	58196.44476
620.269	58196.44476
620.441	58196.44476
620.614	58196.44476
620.787	58196.44476
620.96	58196.44476
621.132	58196.44476
621.305	58196.44476
621.477	58196.44476
621.65	58196.44476
621.823	58196.44476
621.995	58196.44476
622.168	58196.44476
622.34	58196.44476
622.513	58196.44476
622.685	58196.44476
622.858	58196.44476
623.03	58196.44476
623.203	58196.44476
623.375	58196.44476
623.548	58196.44476
623.72	58196.44476
623.893	58196.44476
624.065	58196.44476
624.238	58196.44476
624.41	58196.44476
624.582	58196.44476
624.755	58196.44476
624.927	58196.44476
625.1	58196.44476
625.272	58196.44476
625.444	58196.44476
625.617	58196.44476
625.789	58196.44476
625.961	58196.44476
626.133	58196.44476
626.306	58196.44476
626.478	58196.44476
626.65	58196.44476
626.822	58196.44476
626.995	58196.44476
627.167	58196.44476
627.339	58196.44476
627.511	58196.44476
627.683	58196.44476
627.855	58196.44476
628.027	58196.44476
628.2	58196.44476
628.372	58196.44476
628.544	58196.44476
628.716	58196.44476
628.888	58196.44476
629.06	58196.44476
629.232	58196.44476
629.404	58196.44476
629.576	58196.44476
629.748	58196.44476
629.92	58196.44476
630.092	58196.44476
630.264	58196.44476
630.436	58196.44476
630.608	58196.44476
630.78	58196.44476
630.952	58196.44476
631.124	58196.44476
631.295	58196.44476
631.467	58196.44476
631.639	58196.44476
631.811	58196.44476
631.983	58196.44476
632.155	58196.44476
632.326	58196.44476
632.498	58196.44476
632.67	58196.44476
632.842	58196.44476
633.014	58196.44476
633.185	58196.44476
633.357	58196.44476
633.529	58196.44476
633.7	58196.44476
633.872	58196.44476
634.044	58196.44476
634.215	58196.44476
634.387	58196.44476
634.559	58196.44476
634.73	58196.44476
634.902	58196.44476
635.074	58196.44476
635.245	58196.44476
635.417	58196.44476
635.588	58196.44476
635.76	58196.44476
635.931	58196.44476
636.103	58196.44476
636.274	58196.44476
636.446	58196.44476
636.617	58196.44476
636.789	58196.44476
636.96	58196.44476
637.132	58196.44476
637.303	58196.44476
637.474	58196.44476
637.646	58196.44476
637.817	58196.44476
637.989	58196.44476
638.16	58196.44476
638.331	58196.44476
638.503	58196.44476
638.674	58196.44476
638.845	58196.44476
639.017	58196.44476
639.188	58196.44476
639.359	58196.44476
639.53	58196.44476
639.702	58196.44476
639.873	58196.44476
640.044	58196.44476
640.215	58196.44476
640.387	58196.44476
640.558	58196.44476
640.729	58196.44476
640.9	58196.44476
641.071	58196.44476
641.242	58196.44476
641.413	58196.44476
641.585	58196.44476
641.756	58196.44476
641.927	58196.44476
642.098	58196.44476
642.269	58196.44476
642.44	58196.44476
642.611	58196.44476
642.782	58196.44476
642.953	58196.44476
643.124	58196.44476
643.295	58196.44476
643.466	58196.44476
643.637	58196.44476
643.808	58196.44476
643.979	58196.44476
644.15	58196.44476
644.32	58196.44476
644.491	58196.44476
644.662	58196.44476
644.833	58196.44476
645.004	58196.44476
645.175	58196.44476
645.346	58196.44476
645.516	58196.44476
645.687	58196.44476
645.858	58196.44476
646.029	58196.44476
646.199	58196.44476
646.37	58196.44476
646.541	58196.44476
646.712	58196.44476
646.882	58196.44476
647.053	58196.44476
647.224	58196.44476
647.394	58196.44476
647.565	58196.44476
647.736	58196.44476
647.906	58196.44476
648.077	58196.44476
648.248	58196.44476
648.418	58196.44476
648.589	58196.44476
648.759	58196.44476
648.93	58196.44476
649.1	58196.44476
649.271	58196.44476
649.441	58196.44476
649.612	58196.44476
649.782	58196.44476
649.953	58196.44476
650.123	58196.44476
650.294	58196.44476
650.464	58196.44476
650.635	58196.44476
650.805	58196.44476
650.975	58196.44476
651.146	58196.44476
651.316	58196.44476
651.487	58196.44476
651.657	58196.44476
651.827	58196.44476
651.998	58196.44476
652.168	58196.44476
652.338	58196.44476
652.508	58196.44476
652.679	58196.44476
652.849	58196.44476
653.019	58196.44476
653.189	58196.44476
653.36	58196.44476
653.53	58196.44476
653.7	58196.44476
653.87	58196.44476
654.04	58196.44476
654.211	58196.44476
654.381	58196.44476
654.551	58196.44476
654.721	58196.44476
654.891	58196.44476
655.061	58196.44476
655.231	58196.44476
655.401	58196.44476
655.571	58196.44476
655.741	58196.44476
655.911	58196.44476
656.081	58196.44476
656.251	58196.44476
656.421	58196.44476
656.591	58196.44476
656.761	58196.44476
656.931	58196.44476
657.101	58196.44476
657.271	58196.44476
657.441	58196.44476
657.611	58196.44476
657.781	58196.44476
657.951	58196.44476
658.121	58196.44476
658.291	58196.44476
658.46	58196.44476
658.63	58196.44476
658.8	58196.44476
658.97	58196.44476
659.14	58196.44476
659.309	58196.44476
659.479	58196.44476
659.649	58196.44476
659.819	58196.44476
659.988	58196.44476
660.158	58196.44476
660.328	58196.44476
660.497	58196.44476
660.667	58196.44476
660.837	58196.44476
661.006	58196.44476
661.176	58196.44476
661.346	58196.44476
661.515	58196.44476
661.685	58196.44476
661.854	58196.44476
662.024	58196.44476
662.194	58196.44476
662.363	58196.44476
662.533	58196.44476
662.702	58196.44476
662.872	58196.44476
663.041	58196.44476
663.211	58196.44476
663.38	58196.44476
663.55	58196.44476
663.719	58196.44476
663.889	58196.44476
664.058	58196.44476
664.227	58196.44476
664.397	58196.44476
664.566	58196.44476
664.735	58196.44476
664.905	58196.44476
665.074	58196.44476
665.244	58196.44476
665.413	58196.44476
665.582	58196.44476
665.751	58196.44476
665.921	58196.44476
666.09	58196.44476
666.259	58196.44476
666.428	58196.44476
666.598	58196.44476
666.767	58196.44476
666.936	58196.44476
667.105	58196.44476
667.275	58196.44476
667.444	58196.44476
667.613	58196.44476
667.782	58196.44476
667.951	58196.44476
668.12	58196.44476
668.289	58196.44476
668.458	58196.44476
668.628	58196.44476
668.797	58196.44476
668.966	58196.44476
669.135	58196.44476
669.304	58196.44476
669.473	58196.44476
669.642	58196.44476
669.811	58196.44476
669.98	58196.44476
670.149	58196.44476
670.318	58196.44476
670.487	58196.44476
670.656	58196.44476
670.824	58196.44476
670.993	58196.44476
671.162	58196.44476
671.331	58196.44476
671.5	58196.44476
671.669	58196.44476
671.838	58196.44476
672.007	58196.44476
672.175	58196.44476
672.344	58196.44476
672.513	58196.44476
672.682	58196.44476
672.85	58196.44476
673.019	58196.44476
673.188	58196.44476
673.357	58196.44476
673.525	58196.44476
673.694	58196.44476
673.863	58196.44476
674.032	58196.44476
674.2	58196.44476
674.369	58196.44476
674.537	58196.44476
674.706	58196.44476
674.875	58196.44476
675.043	58196.44476
675.212	58196.44476
675.381	58196.44476
675.549	58196.44476
675.718	58196.44476
675.886	58196.44476
676.055	58196.44476
676.223	58196.44476
676.392	58196.44476
676.56	58196.44476
676.729	58196.44476
676.897	58196.44476
677.066	58196.44476
677.234	58196.44476
677.403	58196.44476
677.571	58196.44476
677.739	58196.44476
677.908	58196.44476
678.076	58196.44476
678.244	58196.44476
678.413	58196.44476
678.581	58196.44476
678.75	58196.44476
678.918	58196.44476
679.086	58196.44476
679.254	58196.44476
679.423	58196.44476
679.591	58196.44476
679.759	58196.44476
679.928	58196.44476
680.096	58196.44476
680.264	58196.44476
680.432	58196.44476
680.6	58196.44476
680.769	58196.44476
680.937	58196.44476
681.105	58196.44476
681.273	58196.44476
681.441	58196.44476
681.609	58196.44476
681.777	58196.44476
681.945	58196.44476
682.114	58196.44476
682.282	58196.44476
682.45	58196.44476
682.618	58196.44476
682.786	58196.44476
682.954	58196.44476
683.122	58196.44476
683.29	58196.44476
683.458	58196.44476
683.626	58196.44476
683.794	58196.44476
683.962	58196.44476
684.13	58196.44476
684.298	58196.44476
684.465	58196.44476
684.633	58196.44476
684.801	58196.44476
684.969	58196.44476
685.137	58196.44476
685.305	58196.44476
685.473	58196.44476
685.64	58196.44476
685.808	58196.44476
685.976	58196.44476
686.144	58196.44476
686.312	58196.44476
686.479	58196.44476
686.647	58196.44476
686.815	58196.44476
686.983	58196.44476
687.15	58196.44476
687.318	58196.44476
687.486	58196.44476
687.653	58196.44476
687.821	58196.44476
687.989	58196.44476
688.156	58196.44476
688.324	58196.44476
688.492	58196.44476
688.659	58196.44476
688.827	58196.44476
688.994	58196.44476
689.162	58196.44476
689.329	58196.44476
689.497	58196.44476
689.665	58196.44476
689.832	58196.44476
690	58196.44476
690.167	58196.44476
690.335	58196.44476
690.502	58196.44476
690.669	58196.44476
690.837	58196.44476
691.004	58196.44476
691.172	58196.44476
691.339	58196.44476
691.507	58196.44476
691.674	58196.44476
691.841	58196.44476
692.009	58196.44476
692.176	58196.44476
692.343	58196.44476
692.511	58196.44476
692.678	58196.44476
692.845	58196.44476
693.013	58196.44476
693.18	58196.44476
693.347	58196.44476
693.514	58196.44476
693.682	58196.44476
693.849	58196.44476
694.016	58196.44476
694.183	58196.44476
694.35	58196.44476
694.518	58196.44476
694.685	58196.44476
694.852	58196.44476
695.019	58196.44476
695.186	58196.44476
695.353	58196.44476
695.52	58196.44476
695.687	58196.44476
695.855	58196.44476
696.022	58196.44476
696.189	58196.44476
696.356	58196.44476
696.523	58196.44476
696.69	58196.44476
696.857	58196.44476
697.024	58196.44476
697.191	58196.44476
697.358	58196.44476
697.525	58196.44476
697.692	58196.44476
697.858	58196.44476
698.025	58196.44476
698.192	58196.44476
698.359	58196.44476
698.526	58196.44476
698.693	58196.44476
698.86	58196.44476
699.027	58196.44476
699.193	58196.44476
699.36	58196.44476
699.527	58196.44476
699.694	58196.44476
699.861	58196.44476
700.027	58196.44476
700.194	58196.44476
700.361	58196.44476
700.528	58196.44476
700.694	58196.44476
700.861	58196.44476
701.028	58196.44476
701.195	58196.44476
701.361	58196.44476
701.528	58196.44476
701.694	58196.44476
701.861	58196.44476
702.028	58196.44476
702.194	58196.44476
702.361	58196.44476
702.528	58196.44476
702.694	58196.44476
702.861	58196.44476
703.027	58196.44476
703.194	58196.44476
703.36	58196.44476
703.527	58196.44476
703.693	58196.44476
703.86	58196.44476
704.026	58196.44476
704.193	58196.44476
704.359	58196.44476
704.526	58196.44476
