Created as New Dataset,Sample 003 By Administrator Date Tuesday, October 14 2025
cm-1,%T
4000.00,98.78
3999.00,98.77
3998.00,98.75
3997.00,98.75
3996.00,98.75
3995.00,98.76
3994.00,98.77
3993.00,98.77
3992.00,98.78
3991.00,98.78
3990.00,98.79
3989.00,98.79
3988.00,98.79
3987.00,98.79
3986.00,98.79
3985.00,98.78
3984.00,98.78
3983.00,98.78
3982.00,98.78
3981.00,98.77
3980.00,98.77
3979.00,98.77
3978.00,98.76
3977.00,98.76
3976.00,98.76
3975.00,98.77
3974.00,98.77
3973.00,98.78
3972.00,98.77
3971.00,98.77
3970.00,98.76
3969.00,98.76
3968.00,98.76
3967.00,98.75
3966.00,98.75
3965.00,98.75
3964.00,98.75
3963.00,98.76
3962.00,98.77
3961.00,98.77
3960.00,98.77
3959.00,98.78
3958.00,98.78
3957.00,98.78
3956.00,98.78
3955.00,98.77
3954.00,98.77
3953.00,98.76
3952.00,98.76
3951.00,98.76
3950.00,98.76
3949.00,98.77
3948.00,98.78
3947.00,98.79
3946.00,98.79
3945.00,98.80
3944.00,98.80
3943.00,98.79
3942.00,98.78
3941.00,98.78
3940.00,98.78
3939.00,98.78
3938.00,98.78
3937.00,98.77
3936.00,98.78
3935.00,98.79
3934.00,98.79
3933.00,98.79
3932.00,98.78
3931.00,98.78
3930.00,98.77
3929.00,98.77
3928.00,98.77
3927.00,98.78
3926.00,98.78
3925.00,98.78
3924.00,98.77
3923.00,98.77
3922.00,98.78
3921.00,98.78
3920.00,98.78
3919.00,98.78
3918.00,98.78
3917.00,98.78
3916.00,98.77
3915.00,98.78
3914.00,98.79
3913.00,98.79
3912.00,98.79
3911.00,98.80
3910.00,98.80
3909.00,98.81
3908.00,98.81
3907.00,98.81
3906.00,98.82
3905.00,98.82
3904.00,98.81
3903.00,98.80
3902.00,98.80
3901.00,98.80
3900.00,98.79
3899.00,98.79
3898.00,98.79
3897.00,98.80
3896.00,98.81
3895.00,98.81
3894.00,98.82
3893.00,98.84
3892.00,98.86
3891.00,98.85
3890.00,98.83
3889.00,98.81
3888.00,98.82
3887.00,98.84
3886.00,98.83
3885.00,98.81
3884.00,98.80
3883.00,98.81
3882.00,98.82
3881.00,98.83
3880.00,98.82
3879.00,98.81
3878.00,98.81
3877.00,98.81
3876.00,98.82
3875.00,98.82
3874.00,98.81
3873.00,98.81
3872.00,98.85
3871.00,98.89
3870.00,98.87
3869.00,98.82
3868.00,98.81
3867.00,98.82
3866.00,98.83
3865.00,98.80
3864.00,98.80
3863.00,98.82
3862.00,98.83
3861.00,98.83
3860.00,98.82
3859.00,98.81
3858.00,98.75
3857.00,98.64
3856.00,98.56
3855.00,98.57
3854.00,98.63
3853.00,98.65
3852.00,98.66
3851.00,98.69
3850.00,98.72
3849.00,98.74
3848.00,98.77
3847.00,98.80
3846.00,98.83
3845.00,98.85
3844.00,98.86
3843.00,98.86
3842.00,98.85
3841.00,98.86
3840.00,98.89
3839.00,98.91
3838.00,98.90
3837.00,98.87
3836.00,98.84
3835.00,98.83
3834.00,98.83
3833.00,98.83
3832.00,98.82
3831.00,98.81
3830.00,98.80
3829.00,98.80
3828.00,98.82
3827.00,98.83
3826.00,98.82
3825.00,98.81
3824.00,98.82
3823.00,98.86
3822.00,98.88
3821.00,98.85
3820.00,98.82
3819.00,98.82
3818.00,98.84
3817.00,98.84
3816.00,98.80
3815.00,98.76
3814.00,98.77
3813.00,98.81
3812.00,98.83
3811.00,98.81
3810.00,98.80
3809.00,98.82
3808.00,98.85
3807.00,98.85
3806.00,98.82
3805.00,98.82
3804.00,98.84
3803.00,98.85
3802.00,98.84
3801.00,98.79
3800.00,98.76
3799.00,98.77
3798.00,98.80
3797.00,98.81
3796.00,98.82
3795.00,98.82
3794.00,98.83
3793.00,98.83
3792.00,98.83
3791.00,98.83
3790.00,98.84
3789.00,98.83
3788.00,98.82
3787.00,98.81
3786.00,98.80
3785.00,98.81
3784.00,98.82
3783.00,98.83
3782.00,98.84
3781.00,98.86
3780.00,98.85
3779.00,98.84
3778.00,98.83
3777.00,98.83
3776.00,98.84
3775.00,98.84
3774.00,98.83
3773.00,98.82
3772.00,98.83
3771.00,98.84
3770.00,98.84
3769.00,98.84
3768.00,98.85
3767.00,98.86
3766.00,98.86
3765.00,98.85
3764.00,98.84
3763.00,98.84
3762.00,98.85
3761.00,98.85
3760.00,98.84
3759.00,98.84
3758.00,98.85
3757.00,98.84
3756.00,98.82
3755.00,98.80
3754.00,98.77
3753.00,98.70
3752.00,98.60
3751.00,98.51
3750.00,98.45
3749.00,98.44
3748.00,98.46
3747.00,98.49
3746.00,98.49
3745.00,98.46
3744.00,98.42
3743.00,98.43
3742.00,98.48
3741.00,98.48
3740.00,98.41
3739.00,98.33
3738.00,98.31
3737.00,98.32
3736.00,98.35
3735.00,98.41
3734.00,98.47
3733.00,98.47
3732.00,98.41
3731.00,98.34
3730.00,98.30
3729.00,98.28
3728.00,98.29
3727.00,98.31
3726.00,98.34
3725.00,98.36
3724.00,98.39
3723.00,98.42
3722.00,98.45
3721.00,98.50
3720.00,98.56
3719.00,98.62
3718.00,98.67
3717.00,98.69
3716.00,98.69
3715.00,98.66
3714.00,98.61
3713.00,98.53
3712.00,98.46
3711.00,98.44
3710.00,98.44
3709.00,98.45
3708.00,98.46
3707.00,98.46
3706.00,98.46
3705.00,98.47
3704.00,98.48
3703.00,98.51
3702.00,98.53
3701.00,98.53
3700.00,98.52
3699.00,98.52
3698.00,98.52
3697.00,98.52
3696.00,98.53
3695.00,98.55
3694.00,98.57
3693.00,98.58
3692.00,98.61
3691.00,98.66
3690.00,98.70
3689.00,98.69
3688.00,98.64
3687.00,98.62
3686.00,98.63
3685.00,98.66
3684.00,98.69
3683.00,98.71
3682.00,98.74
3681.00,98.77
3680.00,98.77
3679.00,98.75
3678.00,98.75
3677.00,98.77
3676.00,98.78
3675.00,98.77
3674.00,98.77
3673.00,98.81
3672.00,98.84
3671.00,98.83
3670.00,98.81
3669.00,98.79
3668.00,98.80
3667.00,98.82
3666.00,98.83
3665.00,98.83
3664.00,98.83
3663.00,98.84
3662.00,98.86
3661.00,98.86
3660.00,98.85
3659.00,98.85
3658.00,98.86
3657.00,98.87
3656.00,98.86
3655.00,98.86
3654.00,98.87
3653.00,98.89
3652.00,98.90
3651.00,98.89
3650.00,98.87
3649.00,98.83
3648.00,98.79
3647.00,98.76
3646.00,98.75
3645.00,98.75
3644.00,98.75
3643.00,98.74
3642.00,98.73
3641.00,98.72
3640.00,98.70
3639.00,98.68
3638.00,98.65
3637.00,98.63
3636.00,98.62
3635.00,98.61
3634.00,98.58
3633.00,98.53
3632.00,98.47
3631.00,98.43
3630.00,98.41
3629.00,98.40
3628.00,98.41
3627.00,98.44
3626.00,98.49
3625.00,98.52
3624.00,98.56
3623.00,98.63
3622.00,98.74
3621.00,98.84
3620.00,98.87
3619.00,98.83
3618.00,98.75
3617.00,98.70
3616.00,98.70
3615.00,98.73
3614.00,98.75
3613.00,98.74
3612.00,98.71
3611.00,98.66
3610.00,98.60
3609.00,98.56
3608.00,98.55
3607.00,98.56
3606.00,98.58
3605.00,98.59
3604.00,98.58
3603.00,98.56
3602.00,98.54
3601.00,98.53
3600.00,98.53
3599.00,98.55
3598.00,98.56
3597.00,98.56
3596.00,98.56
3595.00,98.57
3594.00,98.57
3593.00,98.58
3592.00,98.59
3591.00,98.60
3590.00,98.61
3589.00,98.62
3588.00,98.64
3587.00,98.66
3586.00,98.68
3585.00,98.70
3584.00,98.71
3583.00,98.73
3582.00,98.74
3581.00,98.75
3580.00,98.76
3579.00,98.77
3578.00,98.77
3577.00,98.77
3576.00,98.77
3575.00,98.77
3574.00,98.78
3573.00,98.79
3572.00,98.79
3571.00,98.78
3570.00,98.77
3569.00,98.76
3568.00,98.74
3567.00,98.72
3566.00,98.73
3565.00,98.74
3564.00,98.76
3563.00,98.77
3562.00,98.79
3561.00,98.80
3560.00,98.81
3559.00,98.82
3558.00,98.82
3557.00,98.82
3556.00,98.82
3555.00,98.82
3554.00,98.82
3553.00,98.82
3552.00,98.82
3551.00,98.81
3550.00,98.81
3549.00,98.79
3548.00,98.78
3547.00,98.78
3546.00,98.79
3545.00,98.80
3544.00,98.81
3543.00,98.82
3542.00,98.83
3541.00,98.84
3540.00,98.84
3539.00,98.85
3538.00,98.85
3537.00,98.85
3536.00,98.85
3535.00,98.85
3534.00,98.86
3533.00,98.86
3532.00,98.86
3531.00,98.85
3530.00,98.84
3529.00,98.83
3528.00,98.82
3527.00,98.81
3526.00,98.81
3525.00,98.81
3524.00,98.82
3523.00,98.83
3522.00,98.84
3521.00,98.85
3520.00,98.85
3519.00,98.85
3518.00,98.85
3517.00,98.85
3516.00,98.84
3515.00,98.84
3514.00,98.84
3513.00,98.83
3512.00,98.83
3511.00,98.83
3510.00,98.83
3509.00,98.83
3508.00,98.83
3507.00,98.83
3506.00,98.83
3505.00,98.83
3504.00,98.83
3503.00,98.83
3502.00,98.83
3501.00,98.84
3500.00,98.84
3499.00,98.84
3498.00,98.84
3497.00,98.84
3496.00,98.85
3495.00,98.86
3494.00,98.86
3493.00,98.86
3492.00,98.85
3491.00,98.85
3490.00,98.85
3489.00,98.85
3488.00,98.84
3487.00,98.85
3486.00,98.85
3485.00,98.85
3484.00,98.85
3483.00,98.85
3482.00,98.85
3481.00,98.85
3480.00,98.86
3479.00,98.86
3478.00,98.86
3477.00,98.85
3476.00,98.84
3475.00,98.84
3474.00,98.85
3473.00,98.85
3472.00,98.85
3471.00,98.85
3470.00,98.85
3469.00,98.85
3468.00,98.85
3467.00,98.85
3466.00,98.85
3465.00,98.86
3464.00,98.86
3463.00,98.86
3462.00,98.86
3461.00,98.86
3460.00,98.86
3459.00,98.87
3458.00,98.87
3457.00,98.87
3456.00,98.87
3455.00,98.87
3454.00,98.87
3453.00,98.86
3452.00,98.86
3451.00,98.86
3450.00,98.86
3449.00,98.86
3448.00,98.86
3447.00,98.86
3446.00,98.85
3445.00,98.85
3444.00,98.85
3443.00,98.86
3442.00,98.86
3441.00,98.86
3440.00,98.86
3439.00,98.86
3438.00,98.86
3437.00,98.86
3436.00,98.86
3435.00,98.85
3434.00,98.85
3433.00,98.85
3432.00,98.85
3431.00,98.86
3430.00,98.86
3429.00,98.87
3428.00,98.87
3427.00,98.88
3426.00,98.88
3425.00,98.88
3424.00,98.87
3423.00,98.86
3422.00,98.86
3421.00,98.86
3420.00,98.86
3419.00,98.87
3418.00,98.87
3417.00,98.87
3416.00,98.87
3415.00,98.87
3414.00,98.87
3413.00,98.87
3412.00,98.87
3411.00,98.87
3410.00,98.87
3409.00,98.87
3408.00,98.87
3407.00,98.87
3406.00,98.87
3405.00,98.87
3404.00,98.87
3403.00,98.87
3402.00,98.86
3401.00,98.86
3400.00,98.86
3399.00,98.86
3398.00,98.86
3397.00,98.86
3396.00,98.86
3395.00,98.86
3394.00,98.86
3393.00,98.87
3392.00,98.87
3391.00,98.87
3390.00,98.88
3389.00,98.88
3388.00,98.89
3387.00,98.89
3386.00,98.89
3385.00,98.89
3384.00,98.88
3383.00,98.88
3382.00,98.88
3381.00,98.88
3380.00,98.89
3379.00,98.89
3378.00,98.89
3377.00,98.88
3376.00,98.88
3375.00,98.87
3374.00,98.87
3373.00,98.87
3372.00,98.87
3371.00,98.87
3370.00,98.86
3369.00,98.86
3368.00,98.86
3367.00,98.87
3366.00,98.87
3365.00,98.87
3364.00,98.87
3363.00,98.87
3362.00,98.86
3361.00,98.86
3360.00,98.86
3359.00,98.87
3358.00,98.86
3357.00,98.86
3356.00,98.86
3355.00,98.86
3354.00,98.87
3353.00,98.87
3352.00,98.87
3351.00,98.88
3350.00,98.88
3349.00,98.88
3348.00,98.89
3347.00,98.89
3346.00,98.89
3345.00,98.88
3344.00,98.88
3343.00,98.89
3342.00,98.89
3341.00,98.88
3340.00,98.87
3339.00,98.87
3338.00,98.86
3337.00,98.86
3336.00,98.87
3335.00,98.87
3334.00,98.88
3333.00,98.88
3332.00,98.88
3331.00,98.88
3330.00,98.88
3329.00,98.88
3328.00,98.88
3327.00,98.88
3326.00,98.89
3325.00,98.89
3324.00,98.89
3323.00,98.89
3322.00,98.88
3321.00,98.88
3320.00,98.89
3319.00,98.89
3318.00,98.90
3317.00,98.89
3316.00,98.89
3315.00,98.89
3314.00,98.89
3313.00,98.90
3312.00,98.90
3311.00,98.90
3310.00,98.89
3309.00,98.88
3308.00,98.88
3307.00,98.88
3306.00,98.88
3305.00,98.89
3304.00,98.90
3303.00,98.90
3302.00,98.90
3301.00,98.90
3300.00,98.89
3299.00,98.90
3298.00,98.90
3297.00,98.90
3296.00,98.89
3295.00,98.89
3294.00,98.89
3293.00,98.89
3292.00,98.89
3291.00,98.89
3290.00,98.90
3289.00,98.91
3288.00,98.91
3287.00,98.91
3286.00,98.91
3285.00,98.91
3284.00,98.91
3283.00,98.91
3282.00,98.91
3281.00,98.91
3280.00,98.90
3279.00,98.90
3278.00,98.90
3277.00,98.90
3276.00,98.90
3275.00,98.90
3274.00,98.91
3273.00,98.92
3272.00,98.91
3271.00,98.91
3270.00,98.91
3269.00,98.91
3268.00,98.91
3267.00,98.92
3266.00,98.92
3265.00,98.93
3264.00,98.93
3263.00,98.92
3262.00,98.92
3261.00,98.92
3260.00,98.92
3259.00,98.93
3258.00,98.93
3257.00,98.92
3256.00,98.92
3255.00,98.91
3254.00,98.90
3253.00,98.90
3252.00,98.90
3251.00,98.90
3250.00,98.91
3249.00,98.91
3248.00,98.91
3247.00,98.91
3246.00,98.90
3245.00,98.90
3244.00,98.89
3243.00,98.90
3242.00,98.90
3241.00,98.91
3240.00,98.92
3239.00,98.93
3238.00,98.93
3237.00,98.93
3236.00,98.92
3235.00,98.92
3234.00,98.92
3233.00,98.92
3232.00,98.92
3231.00,98.93
3230.00,98.93
3229.00,98.94
3228.00,98.94
3227.00,98.94
3226.00,98.94
3225.00,98.94
3224.00,98.93
3223.00,98.92
3222.00,98.91
3221.00,98.90
3220.00,98.90
3219.00,98.90
3218.00,98.91
3217.00,98.92
3216.00,98.93
3215.00,98.93
3214.00,98.93
3213.00,98.93
3212.00,98.93
3211.00,98.93
3210.00,98.93
3209.00,98.93
3208.00,98.93
3207.00,98.93
3206.00,98.93
3205.00,98.93
3204.00,98.93
3203.00,98.93
3202.00,98.93
3201.00,98.93
3200.00,98.93
3199.00,98.93
3198.00,98.93
3197.00,98.94
3196.00,98.94
3195.00,98.94
3194.00,98.94
3193.00,98.93
3192.00,98.93
3191.00,98.93
3190.00,98.93
3189.00,98.93
3188.00,98.92
3187.00,98.93
3186.00,98.93
3185.00,98.94
3184.00,98.95
3183.00,98.95
3182.00,98.95
3181.00,98.94
3180.00,98.94
3179.00,98.94
3178.00,98.95
3177.00,98.95
3176.00,98.95
3175.00,98.95
3174.00,98.95
3173.00,98.96
3172.00,98.97
3171.00,98.97
3170.00,98.97
3169.00,98.96
3168.00,98.96
3167.00,98.95
3166.00,98.95
3165.00,98.95
3164.00,98.95
3163.00,98.95
3162.00,98.95
3161.00,98.95
3160.00,98.95
3159.00,98.96
3158.00,98.96
3157.00,98.96
3156.00,98.95
3155.00,98.95
3154.00,98.95
3153.00,98.95
3152.00,98.96
3151.00,98.96
3150.00,98.96
3149.00,98.96
3148.00,98.95
3147.00,98.95
3146.00,98.95
3145.00,98.95
3144.00,98.95
3143.00,98.95
3142.00,98.96
3141.00,98.96
3140.00,98.96
3139.00,98.96
3138.00,98.96
3137.00,98.96
3136.00,98.96
3135.00,98.95
3134.00,98.95
3133.00,98.95
3132.00,98.96
3131.00,98.96
3130.00,98.97
3129.00,98.96
3128.00,98.96
3127.00,98.96
3126.00,98.96
3125.00,98.96
3124.00,98.96
3123.00,98.96
3122.00,98.96
3121.00,98.96
3120.00,98.95
3119.00,98.96
3118.00,98.95
3117.00,98.95
3116.00,98.95
3115.00,98.95
3114.00,98.95
3113.00,98.95
3112.00,98.95
3111.00,98.96
3110.00,98.96
3109.00,98.96
3108.00,98.96
3107.00,98.96
3106.00,98.96
3105.00,98.96
3104.00,98.97
3103.00,98.97
3102.00,98.97
3101.00,98.97
3100.00,98.96
3099.00,98.96
3098.00,98.95
3097.00,98.95
3096.00,98.95
3095.00,98.95
3094.00,98.96
3093.00,98.96
3092.00,98.96
3091.00,98.96
3090.00,98.96
3089.00,98.96
3088.00,98.97
3087.00,98.97
3086.00,98.97
3085.00,98.98
3084.00,98.97
3083.00,98.97
3082.00,98.97
3081.00,98.97
3080.00,98.97
3079.00,98.96
3078.00,98.95
3077.00,98.95
3076.00,98.96
3075.00,98.97
3074.00,98.98
3073.00,98.98
3072.00,98.98
3071.00,98.98
3070.00,98.97
3069.00,98.96
3068.00,98.96
3067.00,98.96
3066.00,98.97
3065.00,98.97
3064.00,98.98
3063.00,98.98
3062.00,98.98
3061.00,98.98
3060.00,98.97
3059.00,98.97
3058.00,98.97
3057.00,98.97
3056.00,98.97
3055.00,98.97
3054.00,98.98
3053.00,98.99
3052.00,98.99
3051.00,98.99
3050.00,98.99
3049.00,98.98
3048.00,98.97
3047.00,98.98
3046.00,98.98
3045.00,98.98
3044.00,98.99
3043.00,98.99
3042.00,98.99
3041.00,98.99
3040.00,98.99
3039.00,98.98
3038.00,98.99
3037.00,98.99
3036.00,98.99
3035.00,98.99
3034.00,98.99
3033.00,98.99
3032.00,98.99
3031.00,98.98
3030.00,98.98
3029.00,98.98
3028.00,98.98
3027.00,98.98
3026.00,98.98
3025.00,98.98
3024.00,98.98
3023.00,98.98
3022.00,98.98
3021.00,98.98
3020.00,98.98
3019.00,98.97
3018.00,98.97
3017.00,98.96
3016.00,98.96
3015.00,98.97
3014.00,98.97
3013.00,98.97
3012.00,98.97
3011.00,98.97
3010.00,98.98
3009.00,98.98
3008.00,98.99
3007.00,99.00
3006.00,99.00
3005.00,99.00
3004.00,98.99
3003.00,98.98
3002.00,98.98
3001.00,98.98
3000.00,98.99
2999.00,98.99
2998.00,98.99
2997.00,98.99
2996.00,98.98
2995.00,98.97
2994.00,98.97
2993.00,98.98
2992.00,98.98
2991.00,98.99
2990.00,98.99
2989.00,98.99
2988.00,98.99
2987.00,98.99
2986.00,98.99
2985.00,98.99
2984.00,98.99
2983.00,98.98
2982.00,98.99
2981.00,98.99
2980.00,98.99
2979.00,98.99
2978.00,98.98
2977.00,98.99
2976.00,98.99
2975.00,99.00
2974.00,98.99
2973.00,98.99
2972.00,98.98
2971.00,98.99
2970.00,98.99
2969.00,99.00
2968.00,99.00
2967.00,99.00
2966.00,99.01
2965.00,99.00
2964.00,98.99
2963.00,98.99
2962.00,98.98
2961.00,98.98
2960.00,98.98
2959.00,98.99
2958.00,98.99
2957.00,98.99
2956.00,98.99
2955.00,98.99
2954.00,98.99
2953.00,98.99
2952.00,98.99
2951.00,98.99
2950.00,98.99
2949.00,98.99
2948.00,98.99
2947.00,98.99
2946.00,98.99
2945.00,98.99
2944.00,98.99
2943.00,98.99
2942.00,98.99
2941.00,98.99
2940.00,98.99
2939.00,98.99
2938.00,98.99
2937.00,98.99
2936.00,98.99
2935.00,98.99
2934.00,98.99
2933.00,98.98
2932.00,98.98
2931.00,98.99
2930.00,98.99
2929.00,99.00
2928.00,99.00
2927.00,99.00
2926.00,98.99
2925.00,98.98
2924.00,98.98
2923.00,98.99
2922.00,99.00
2921.00,99.00
2920.00,99.01
2919.00,99.01
2918.00,99.00
2917.00,99.00
2916.00,99.00
2915.00,98.99
2914.00,99.00
2913.00,99.00
2912.00,99.01
2911.00,99.01
2910.00,99.01
2909.00,99.00
2908.00,99.00
2907.00,99.00
2906.00,99.00
2905.00,99.00
2904.00,99.00
2903.00,99.00
2902.00,99.00
2901.00,99.00
2900.00,99.00
2899.00,99.00
2898.00,99.00
2897.00,99.00
2896.00,99.01
2895.00,99.01
2894.00,99.01
2893.00,99.00
2892.00,99.00
2891.00,98.99
2890.00,98.99
2889.00,99.00
2888.00,99.00
2887.00,99.01
2886.00,99.01
2885.00,99.01
2884.00,99.01
2883.00,99.01
2882.00,99.01
2881.00,99.01
2880.00,99.01
2879.00,99.01
2878.00,99.01
2877.00,99.02
2876.00,99.02
2875.00,99.02
2874.00,99.02
2873.00,99.02
2872.00,99.02
2871.00,99.02
2870.00,99.02
2869.00,99.02
2868.00,99.02
2867.00,99.02
2866.00,99.01
2865.00,99.01
2864.00,99.01
2863.00,99.02
2862.00,99.02
2861.00,99.02
2860.00,99.02
2859.00,99.02
2858.00,99.01
2857.00,99.01
2856.00,99.01
2855.00,99.01
2854.00,99.01
2853.00,99.01
2852.00,99.01
2851.00,99.02
2850.00,99.02
2849.00,99.03
2848.00,99.03
2847.00,99.02
2846.00,99.02
2845.00,99.03
2844.00,99.03
2843.00,99.04
2842.00,99.04
2841.00,99.03
2840.00,99.02
2839.00,99.02
2838.00,99.02
2837.00,99.02
2836.00,99.03
2835.00,99.03
2834.00,99.03
2833.00,99.03
2832.00,99.04
2831.00,99.04
2830.00,99.04
2829.00,99.03
2828.00,99.03
2827.00,99.02
2826.00,99.01
2825.00,99.02
2824.00,99.02
2823.00,99.03
2822.00,99.03
2821.00,99.03
2820.00,99.03
2819.00,99.03
2818.00,99.03
2817.00,99.03
2816.00,99.03
2815.00,99.03
2814.00,99.03
2813.00,99.03
2812.00,99.03
2811.00,99.03
2810.00,99.04
2809.00,99.04
2808.00,99.04
2807.00,99.04
2806.00,99.04
2805.00,99.03
2804.00,99.03
2803.00,99.02
2802.00,99.02
2801.00,99.03
2800.00,99.03
2799.00,99.04
2798.00,99.05
2797.00,99.05
2796.00,99.04
2795.00,99.04
2794.00,99.03
2793.00,99.03
2792.00,99.03
2791.00,99.03
2790.00,99.03
2789.00,99.03
2788.00,99.04
2787.00,99.04
2786.00,99.04
2785.00,99.04
2784.00,99.04
2783.00,99.04
2782.00,99.04
2781.00,99.04
2780.00,99.04
2779.00,99.05
2778.00,99.05
2777.00,99.05
2776.00,99.04
2775.00,99.04
2774.00,99.04
2773.00,99.04
2772.00,99.04
2771.00,99.04
2770.00,99.04
2769.00,99.04
2768.00,99.04
2767.00,99.04
2766.00,99.04
2765.00,99.04
2764.00,99.04
2763.00,99.04
2762.00,99.04
2761.00,99.04
2760.00,99.04
2759.00,99.04
2758.00,99.04
2757.00,99.04
2756.00,99.04
2755.00,99.04
2754.00,99.04
2753.00,99.04
2752.00,99.04
2751.00,99.05
2750.00,99.05
2749.00,99.05
2748.00,99.05
2747.00,99.05
2746.00,99.05
2745.00,99.05
2744.00,99.06
2743.00,99.06
2742.00,99.06
2741.00,99.06
2740.00,99.05
2739.00,99.05
2738.00,99.05
2737.00,99.04
2736.00,99.04
2735.00,99.04
2734.00,99.04
2733.00,99.04
2732.00,99.05
2731.00,99.05
2730.00,99.05
2729.00,99.05
2728.00,99.05
2727.00,99.06
2726.00,99.06
2725.00,99.06
2724.00,99.06
2723.00,99.05
2722.00,99.06
2721.00,99.06
2720.00,99.07
2719.00,99.07
2718.00,99.07
2717.00,99.07
2716.00,99.06
2715.00,99.06
2714.00,99.05
2713.00,99.05
2712.00,99.04
2711.00,99.05
2710.00,99.05
2709.00,99.06
2708.00,99.06
2707.00,99.06
2706.00,99.06
2705.00,99.06
2704.00,99.06
2703.00,99.07
2702.00,99.07
2701.00,99.07
2700.00,99.07
2699.00,99.07
2698.00,99.07
2697.00,99.07
2696.00,99.07
2695.00,99.07
2694.00,99.07
2693.00,99.07
2692.00,99.07
2691.00,99.08
2690.00,99.08
2689.00,99.07
2688.00,99.07
2687.00,99.06
2686.00,99.06
2685.00,99.06
2684.00,99.07
2683.00,99.07
2682.00,99.07
2681.00,99.06
2680.00,99.05
2679.00,99.05
2678.00,99.05
2677.00,99.05
2676.00,99.06
2675.00,99.06
2674.00,99.07
2673.00,99.07
2672.00,99.07
2671.00,99.07
2670.00,99.07
2669.00,99.06
2668.00,99.06
2667.00,99.06
2666.00,99.06
2665.00,99.06
2664.00,99.07
2663.00,99.07
2662.00,99.07
2661.00,99.07
2660.00,99.07
2659.00,99.07
2658.00,99.07
2657.00,99.07
2656.00,99.08
2655.00,99.08
2654.00,99.08
2653.00,99.07
2652.00,99.07
2651.00,99.06
2650.00,99.06
2649.00,99.06
2648.00,99.06
2647.00,99.07
2646.00,99.07
2645.00,99.07
2644.00,99.06
2643.00,99.06
2642.00,99.06
2641.00,99.06
2640.00,99.06
2639.00,99.07
2638.00,99.07
2637.00,99.08
2636.00,99.08
2635.00,99.07
2634.00,99.07
2633.00,99.07
2632.00,99.08
2631.00,99.08
2630.00,99.08
2629.00,99.08
2628.00,99.07
2627.00,99.07
2626.00,99.07
2625.00,99.07
2624.00,99.08
2623.00,99.08
2622.00,99.08
2621.00,99.08
2620.00,99.08
2619.00,99.08
2618.00,99.08
2617.00,99.08
2616.00,99.08
2615.00,99.08
2614.00,99.07
2613.00,99.07
2612.00,99.07
2611.00,99.08
2610.00,99.08
2609.00,99.08
2608.00,99.07
2607.00,99.08
2606.00,99.08
2605.00,99.08
2604.00,99.08
2603.00,99.08
2602.00,99.08
2601.00,99.08
2600.00,99.08
2599.00,99.09
2598.00,99.09
2597.00,99.09
2596.00,99.09
2595.00,99.08
2594.00,99.08
2593.00,99.08
2592.00,99.08
2591.00,99.08
2590.00,99.08
2589.00,99.08
2588.00,99.08
2587.00,99.08
2586.00,99.08
2585.00,99.09
2584.00,99.09
2583.00,99.10
2582.00,99.10
2581.00,99.10
2580.00,99.10
2579.00,99.10
2578.00,99.10
2577.00,99.09
2576.00,99.09
2575.00,99.09
2574.00,99.09
2573.00,99.09
2572.00,99.09
2571.00,99.09
2570.00,99.09
2569.00,99.09
2568.00,99.09
2567.00,99.09
2566.00,99.09
2565.00,99.09
2564.00,99.09
2563.00,99.09
2562.00,99.09
2561.00,99.09
2560.00,99.09
2559.00,99.09
2558.00,99.09
2557.00,99.09
2556.00,99.09
2555.00,99.09
2554.00,99.09
2553.00,99.08
2552.00,99.09
2551.00,99.09
2550.00,99.09
2549.00,99.09
2548.00,99.08
2547.00,99.08
2546.00,99.08
2545.00,99.08
2544.00,99.09
2543.00,99.09
2542.00,99.10
2541.00,99.10
2540.00,99.09
2539.00,99.09
2538.00,99.09
2537.00,99.09
2536.00,99.09
2535.00,99.09
2534.00,99.09
2533.00,99.10
2532.00,99.10
2531.00,99.10
2530.00,99.10
2529.00,99.10
2528.00,99.10
2527.00,99.09
2526.00,99.09
2525.00,99.09
2524.00,99.10
2523.00,99.10
2522.00,99.10
2521.00,99.10
2520.00,99.10
2519.00,99.10
2518.00,99.10
2517.00,99.10
2516.00,99.10
2515.00,99.10
2514.00,99.09
2513.00,99.09
2512.00,99.10
2511.00,99.10
2510.00,99.11
2509.00,99.11
2508.00,99.12
2507.00,99.12
2506.00,99.12
2505.00,99.11
2504.00,99.11
2503.00,99.11
2502.00,99.11
2501.00,99.11
2500.00,99.11
2499.00,99.11
2498.00,99.10
2497.00,99.10
2496.00,99.10
2495.00,99.11
2494.00,99.12
2493.00,99.12
2492.00,99.12
2491.00,99.11
2490.00,99.11
2489.00,99.10
2488.00,99.10
2487.00,99.11
2486.00,99.12
2485.00,99.12
2484.00,99.12
2483.00,99.12
2482.00,99.12
2481.00,99.12
2480.00,99.12
2479.00,99.12
2478.00,99.12
2477.00,99.11
2476.00,99.12
2475.00,99.12
2474.00,99.13
2473.00,99.12
2472.00,99.12
2471.00,99.12
2470.00,99.12
2469.00,99.12
2468.00,99.12
2467.00,99.13
2466.00,99.13
2465.00,99.14
2464.00,99.14
2463.00,99.14
2462.00,99.13
2461.00,99.13
2460.00,99.12
2459.00,99.12
2458.00,99.11
2457.00,99.11
2456.00,99.11
2455.00,99.12
2454.00,99.12
2453.00,99.12
2452.00,99.12
2451.00,99.12
2450.00,99.12
2449.00,99.12
2448.00,99.11
2447.00,99.11
2446.00,99.10
2445.00,99.10
2444.00,99.10
2443.00,99.11
2442.00,99.12
2441.00,99.13
2440.00,99.13
2439.00,99.13
2438.00,99.13
2437.00,99.13
2436.00,99.13
2435.00,99.13
2434.00,99.13
2433.00,99.13
2432.00,99.13
2431.00,99.13
2430.00,99.13
2429.00,99.13
2428.00,99.13
2427.00,99.14
2426.00,99.14
2425.00,99.14
2424.00,99.14
2423.00,99.14
2422.00,99.14
2421.00,99.13
2420.00,99.13
2419.00,99.13
2418.00,99.12
2417.00,99.12
2416.00,99.12
2415.00,99.13
2414.00,99.13
2413.00,99.13
2412.00,99.14
2411.00,99.14
2410.00,99.14
2409.00,99.14
2408.00,99.14
2407.00,99.14
2406.00,99.14
2405.00,99.13
2404.00,99.13
2403.00,99.14
2402.00,99.14
2401.00,99.13
2400.00,99.13
2399.00,99.14
2398.00,99.14
2397.00,99.14
2396.00,99.14
2395.00,99.15
2394.00,99.15
2393.00,99.13
2392.00,99.12
2391.00,99.10
2390.00,99.06
2389.00,99.00
2388.00,98.92
2387.00,98.81
2386.00,98.65
2385.00,98.45
2384.00,98.24
2383.00,98.04
2382.00,97.89
2381.00,97.82
2380.00,97.85
2379.00,97.96
2378.00,98.11
2377.00,98.22
2376.00,98.26
2375.00,98.22
2374.00,98.08
2373.00,97.90
2372.00,97.73
2371.00,97.61
2370.00,97.52
2369.00,97.47
2368.00,97.45
2367.00,97.46
2366.00,97.46
2365.00,97.45
2364.00,97.42
2363.00,97.37
2362.00,97.25
2361.00,97.04
2360.00,96.83
2359.00,96.62
2358.00,96.44
2357.00,96.26
2356.00,96.18
2355.00,96.29
2354.00,96.48
2353.00,96.57
2352.00,96.43
2351.00,96.27
2350.00,96.25
2349.00,96.27
2348.00,96.21
2347.00,96.08
2346.00,96.00
2345.00,95.99
2344.00,95.99
2343.00,95.95
2342.00,95.82
2341.00,95.69
2340.00,95.63
2339.00,95.67
2338.00,95.75
2337.00,95.80
2336.00,95.75
2335.00,95.57
2334.00,95.30
2333.00,95.06
2332.00,94.85
2331.00,94.75
2330.00,94.84
2329.00,95.05
2328.00,95.26
2327.00,95.30
2326.00,95.19
2325.00,95.05
2324.00,95.03
2323.00,95.14
2322.00,95.30
2321.00,95.46
2320.00,95.63
2319.00,95.86
2318.00,96.12
2317.00,96.35
2316.00,96.51
2315.00,96.64
2314.00,96.80
2313.00,96.96
2312.00,97.11
2311.00,97.20
2310.00,97.26
2309.00,97.31
2308.00,97.35
2307.00,97.38
2306.00,97.44
2305.00,97.53
2304.00,97.61
2303.00,97.70
2302.00,97.77
2301.00,97.83
2300.00,97.90
2299.00,97.97
2298.00,98.05
2297.00,98.13
2296.00,98.21
2295.00,98.29
2294.00,98.36
2293.00,98.44
2292.00,98.51
2291.00,98.58
2290.00,98.65
2289.00,98.72
2288.00,98.78
2287.00,98.84
2286.00,98.90
2285.00,98.94
2284.00,98.97
2283.00,98.98
2282.00,98.97
2281.00,98.96
2280.00,98.95
2279.00,98.94
2278.00,98.93
2277.00,98.93
2276.00,98.93
2275.00,98.93
2274.00,98.93
2273.00,98.93
2272.00,98.93
2271.00,98.93
2270.00,98.93
2269.00,98.93
2268.00,98.94
2267.00,98.94
2266.00,98.94
2265.00,98.95
2264.00,98.96
2263.00,98.96
2262.00,98.97
2261.00,98.98
2260.00,99.00
2259.00,99.01
2258.00,99.03
2257.00,99.04
2256.00,99.04
2255.00,99.05
2254.00,99.05
2253.00,99.07
2252.00,99.08
2251.00,99.09
2250.00,99.10
2249.00,99.10
2248.00,99.11
2247.00,99.12
2246.00,99.12
2245.00,99.13
2244.00,99.14
2243.00,99.14
2242.00,99.15
2241.00,99.15
2240.00,99.16
2239.00,99.16
2238.00,99.16
2237.00,99.16
2236.00,99.15
2235.00,99.16
2234.00,99.16
2233.00,99.17
2232.00,99.18
2231.00,99.18
2230.00,99.18
2229.00,99.18
2228.00,99.17
2227.00,99.17
2226.00,99.17
2225.00,99.17
2224.00,99.17
2223.00,99.17
2222.00,99.17
2221.00,99.18
2220.00,99.19
2219.00,99.19
2218.00,99.19
2217.00,99.19
2216.00,99.18
2215.00,99.18
2214.00,99.18
2213.00,99.18
2212.00,99.18
2211.00,99.18
2210.00,99.18
2209.00,99.19
2208.00,99.19
2207.00,99.19
2206.00,99.19
2205.00,99.19
2204.00,99.19
2203.00,99.19
2202.00,99.19
2201.00,99.19
2200.00,99.19
2199.00,99.19
2198.00,99.19
2197.00,99.20
2196.00,99.20
2195.00,99.20
2194.00,99.20
2193.00,99.19
2192.00,99.19
2191.00,99.18
2190.00,99.18
2189.00,99.19
2188.00,99.19
2187.00,99.19
2186.00,99.19
2185.00,99.19
2184.00,99.19
2183.00,99.19
2182.00,99.19
2181.00,99.20
2180.00,99.20
2179.00,99.20
2178.00,99.19
2177.00,99.19
2176.00,99.19
2175.00,99.19
2174.00,99.20
2173.00,99.20
2172.00,99.21
2171.00,99.21
2170.00,99.21
2169.00,99.21
2168.00,99.21
2167.00,99.20
2166.00,99.19
2165.00,99.19
2164.00,99.20
2163.00,99.20
2162.00,99.20
2161.00,99.21
2160.00,99.21
2159.00,99.20
2158.00,99.19
2157.00,99.19
2156.00,99.19
2155.00,99.19
2154.00,99.20
2153.00,99.20
2152.00,99.21
2151.00,99.21
2150.00,99.21
2149.00,99.21
2148.00,99.20
2147.00,99.20
2146.00,99.20
2145.00,99.20
2144.00,99.20
2143.00,99.20
2142.00,99.20
2141.00,99.20
2140.00,99.20
2139.00,99.19
2138.00,99.19
2137.00,99.19
2136.00,99.20
2135.00,99.20
2134.00,99.20
2133.00,99.20
2132.00,99.20
2131.00,99.20
2130.00,99.20
2129.00,99.20
2128.00,99.21
2127.00,99.21
2126.00,99.22
2125.00,99.21
2124.00,99.21
2123.00,99.21
2122.00,99.20
2121.00,99.21
2120.00,99.21
2119.00,99.21
2118.00,99.21
2117.00,99.21
2116.00,99.21
2115.00,99.20
2114.00,99.20
2113.00,99.21
2112.00,99.21
2111.00,99.21
2110.00,99.22
2109.00,99.22
2108.00,99.22
2107.00,99.22
2106.00,99.21
2105.00,99.21
2104.00,99.21
2103.00,99.21
2102.00,99.22
2101.00,99.22
2100.00,99.22
2099.00,99.22
2098.00,99.21
2097.00,99.21
2096.00,99.21
2095.00,99.20
2094.00,99.20
2093.00,99.20
2092.00,99.20
2091.00,99.20
2090.00,99.20
2089.00,99.20
2088.00,99.20
2087.00,99.20
2086.00,99.21
2085.00,99.21
2084.00,99.22
2083.00,99.22
2082.00,99.22
2081.00,99.22
2080.00,99.22
2079.00,99.21
2078.00,99.20
2077.00,99.20
2076.00,99.20
2075.00,99.21
2074.00,99.21
2073.00,99.22
2072.00,99.23
2071.00,99.22
2070.00,99.22
2069.00,99.22
2068.00,99.22
2067.00,99.22
2066.00,99.22
2065.00,99.22
2064.00,99.22
2063.00,99.22
2062.00,99.22
2061.00,99.23
2060.00,99.23
2059.00,99.23
2058.00,99.23
2057.00,99.23
2056.00,99.23
2055.00,99.23
2054.00,99.23
2053.00,99.23
2052.00,99.23
2051.00,99.23
2050.00,99.23
2049.00,99.23
2048.00,99.22
2047.00,99.22
2046.00,99.21
2045.00,99.21
2044.00,99.21
2043.00,99.21
2042.00,99.21
2041.00,99.21
2040.00,99.21
2039.00,99.21
2038.00,99.21
2037.00,99.22
2036.00,99.23
2035.00,99.23
2034.00,99.23
2033.00,99.23
2032.00,99.23
2031.00,99.23
2030.00,99.22
2029.00,99.22
2028.00,99.23
2027.00,99.23
2026.00,99.23
2025.00,99.23
2024.00,99.23
2023.00,99.23
2022.00,99.23
2021.00,99.23
2020.00,99.23
2019.00,99.23
2018.00,99.22
2017.00,99.22
2016.00,99.22
2015.00,99.22
2014.00,99.22
2013.00,99.22
2012.00,99.22
2011.00,99.23
2010.00,99.23
2009.00,99.23
2008.00,99.23
2007.00,99.23
2006.00,99.22
2005.00,99.22
2004.00,99.23
2003.00,99.23
2002.00,99.23
2001.00,99.23
2000.00,99.23
1999.00,99.23
1998.00,99.22
1997.00,99.22
1996.00,99.22
1995.00,99.23
1994.00,99.23
1993.00,99.24
1992.00,99.23
1991.00,99.23
1990.00,99.22
1989.00,99.22
1988.00,99.22
1987.00,99.23
1986.00,99.23
1985.00,99.23
1984.00,99.24
1983.00,99.24
1982.00,99.24
1981.00,99.24
1980.00,99.24
1979.00,99.24
1978.00,99.24
1977.00,99.23
1976.00,99.23
1975.00,99.23
1974.00,99.24
1973.00,99.24
1972.00,99.24
1971.00,99.24
1970.00,99.24
1969.00,99.24
1968.00,99.24
1967.00,99.23
1966.00,99.23
1965.00,99.23
1964.00,99.23
1963.00,99.23
1962.00,99.23
1961.00,99.23
1960.00,99.24
1959.00,99.25
1958.00,99.25
1957.00,99.25
1956.00,99.24
1955.00,99.23
1954.00,99.23
1953.00,99.23
1952.00,99.24
1951.00,99.24
1950.00,99.25
1949.00,99.25
1948.00,99.24
1947.00,99.24
1946.00,99.24
1945.00,99.25
1944.00,99.25
1943.00,99.25
1942.00,99.25
1941.00,99.25
1940.00,99.25
1939.00,99.25
1938.00,99.25
1937.00,99.26
1936.00,99.25
1935.00,99.25
1934.00,99.25
1933.00,99.25
1932.00,99.25
1931.00,99.24
1930.00,99.24
1929.00,99.25
1928.00,99.26
1927.00,99.26
1926.00,99.26
1925.00,99.25
1924.00,99.24
1923.00,99.23
1922.00,99.24
1921.00,99.25
1920.00,99.27
1919.00,99.28
1918.00,99.27
1917.00,99.26
1916.00,99.24
1915.00,99.23
1914.00,99.23
1913.00,99.23
1912.00,99.24
1911.00,99.23
1910.00,99.22
1909.00,99.22
1908.00,99.23
1907.00,99.24
1906.00,99.24
1905.00,99.26
1904.00,99.26
1903.00,99.25
1902.00,99.24
1901.00,99.25
1900.00,99.26
1899.00,99.26
1898.00,99.26
1897.00,99.26
1896.00,99.26
1895.00,99.25
1894.00,99.25
1893.00,99.26
1892.00,99.27
1891.00,99.27
1890.00,99.27
1889.00,99.27
1888.00,99.27
1887.00,99.26
1886.00,99.24
1885.00,99.25
1884.00,99.25
1883.00,99.24
1882.00,99.24
1881.00,99.24
1880.00,99.25
1879.00,99.25
1878.00,99.25
1877.00,99.25
1876.00,99.26
1875.00,99.26
1874.00,99.25
1873.00,99.26
1872.00,99.27
1871.00,99.28
1870.00,99.28
1869.00,99.27
1868.00,99.26
1867.00,99.24
1866.00,99.22
1865.00,99.23
1864.00,99.25
1863.00,99.25
1862.00,99.24
1861.00,99.25
1860.00,99.26
1859.00,99.26
1858.00,99.25
1857.00,99.26
1856.00,99.27
1855.00,99.27
1854.00,99.26
1853.00,99.26
1852.00,99.26
1851.00,99.25
1850.00,99.24
1849.00,99.24
1848.00,99.25
1847.00,99.24
1846.00,99.24
1845.00,99.25
1844.00,99.25
1843.00,99.24
1842.00,99.24
1841.00,99.25
1840.00,99.26
1839.00,99.25
1838.00,99.24
1837.00,99.24
1836.00,99.24
1835.00,99.25
1834.00,99.26
1833.00,99.27
1832.00,99.29
1831.00,99.29
1830.00,99.29
1829.00,99.28
1828.00,99.28
1827.00,99.28
1826.00,99.27
1825.00,99.27
1824.00,99.27
1823.00,99.26
1822.00,99.25
1821.00,99.25
1820.00,99.26
1819.00,99.28
1818.00,99.28
1817.00,99.28
1816.00,99.29
1815.00,99.28
1814.00,99.26
1813.00,99.24
1812.00,99.24
1811.00,99.24
1810.00,99.22
1809.00,99.23
1808.00,99.25
1807.00,99.26
1806.00,99.26
1805.00,99.27
1804.00,99.29
1803.00,99.29
1802.00,99.28
1801.00,99.26
1800.00,99.26
1799.00,99.25
1798.00,99.24
1797.00,99.23
1796.00,99.23
1795.00,99.23
1794.00,99.23
1793.00,99.24
1792.00,99.26
1791.00,99.27
1790.00,99.26
1789.00,99.26
1788.00,99.27
1787.00,99.28
1786.00,99.27
1785.00,99.27
1784.00,99.27
1783.00,99.25
1782.00,99.23
1781.00,99.22
1780.00,99.22
1779.00,99.23
1778.00,99.24
1777.00,99.24
1776.00,99.24
1775.00,99.23
1774.00,99.23
1773.00,99.22
1772.00,99.23
1771.00,99.26
1770.00,99.29
1769.00,99.29
1768.00,99.29
1767.00,99.28
1766.00,99.27
1765.00,99.25
1764.00,99.26
1763.00,99.28
1762.00,99.29
1761.00,99.27
1760.00,99.26
1759.00,99.27
1758.00,99.29
1757.00,99.28
1756.00,99.27
1755.00,99.25
1754.00,99.22
1753.00,99.18
1752.00,99.16
1751.00,99.17
1750.00,99.17
1749.00,99.16
1748.00,99.16
1747.00,99.18
1746.00,99.20
1745.00,99.20
1744.00,99.20
1743.00,99.22
1742.00,99.22
1741.00,99.22
1740.00,99.22
1739.00,99.23
1738.00,99.22
1737.00,99.17
1736.00,99.12
1735.00,99.11
1734.00,99.12
1733.00,99.12
1732.00,99.15
1731.00,99.19
1730.00,99.22
1729.00,99.24
1728.00,99.25
1727.00,99.25
1726.00,99.24
1725.00,99.23
1724.00,99.23
1723.00,99.23
1722.00,99.23
1721.00,99.24
1720.00,99.28
1719.00,99.30
1718.00,99.28
1717.00,99.27
1716.00,99.27
1715.00,99.26
1714.00,99.23
1713.00,99.24
1712.00,99.25
1711.00,99.24
1710.00,99.22
1709.00,99.22
1708.00,99.23
1707.00,99.24
1706.00,99.24
1705.00,99.27
1704.00,99.28
1703.00,99.21
1702.00,99.15
1701.00,99.17
1700.00,99.21
1699.00,99.22
1698.00,99.23
1697.00,99.26
1696.00,99.28
1695.00,99.27
1694.00,99.24
1693.00,99.25
1692.00,99.25
1691.00,99.24
1690.00,99.23
1689.00,99.23
1688.00,99.24
1687.00,99.28
1686.00,99.36
1685.00,99.42
1684.00,99.38
1683.00,99.30
1682.00,99.26
1681.00,99.23
1680.00,99.21
1679.00,99.21
1678.00,99.22
1677.00,99.22
1676.00,99.22
1675.00,99.23
1674.00,99.25
1673.00,99.26
1672.00,99.24
1671.00,99.21
1670.00,99.20
1669.00,99.22
1668.00,99.22
1667.00,99.24
1666.00,99.26
1665.00,99.26
1664.00,99.24
1663.00,99.22
1662.00,99.23
1661.00,99.24
1660.00,99.23
1659.00,99.24
1658.00,99.27
1657.00,99.28
1656.00,99.25
1655.00,99.28
1654.00,99.36
1653.00,99.33
1652.00,99.22
1651.00,99.21
1650.00,99.25
1649.00,99.25
1648.00,99.22
1647.00,99.21
1646.00,99.21
1645.00,99.21
1644.00,99.21
1643.00,99.22
1642.00,99.21
1641.00,99.21
1640.00,99.21
1639.00,99.20
1638.00,99.18
1637.00,99.16
1636.00,99.17
1635.00,99.19
1634.00,99.20
1633.00,99.22
1632.00,99.22
1631.00,99.21
1630.00,99.19
1629.00,99.20
1628.00,99.20
1627.00,99.21
1626.00,99.21
1625.00,99.21
1624.00,99.19
1623.00,99.18
1622.00,99.20
1621.00,99.22
1620.00,99.21
1619.00,99.17
1618.00,99.15
1617.00,99.16
1616.00,99.16
1615.00,99.18
1614.00,99.22
1613.00,99.24
1612.00,99.21
1611.00,99.18
1610.00,99.18
1609.00,99.19
1608.00,99.18
1607.00,99.18
1606.00,99.20
1605.00,99.21
1604.00,99.20
1603.00,99.20
1602.00,99.21
1601.00,99.22
1600.00,99.21
1599.00,99.20
1598.00,99.21
1597.00,99.21
1596.00,99.20
1595.00,99.20
1594.00,99.21
1593.00,99.23
1592.00,99.22
1591.00,99.21
1590.00,99.22
1589.00,99.23
1588.00,99.23
1587.00,99.22
1586.00,99.23
1585.00,99.24
1584.00,99.23
1583.00,99.22
1582.00,99.24
1581.00,99.26
1580.00,99.24
1579.00,99.22
1578.00,99.20
1577.00,99.19
1576.00,99.17
1575.00,99.17
1574.00,99.22
1573.00,99.25
1572.00,99.23
1571.00,99.22
1570.00,99.23
1569.00,99.23
1568.00,99.20
1567.00,99.19
1566.00,99.21
1565.00,99.22
1564.00,99.21
1563.00,99.22
1562.00,99.25
1561.00,99.36
1560.00,99.46
1559.00,99.43
1558.00,99.35
1557.00,99.28
1556.00,99.24
1555.00,99.23
1554.00,99.23
1553.00,99.22
1552.00,99.21
1551.00,99.21
1550.00,99.22
1549.00,99.23
1548.00,99.22
1547.00,99.21
1546.00,99.22
1545.00,99.20
1544.00,99.16
1543.00,99.12
1542.00,99.14
1541.00,99.19
1540.00,99.23
1539.00,99.21
1538.00,99.18
1537.00,99.21
1536.00,99.23
1535.00,99.23
1534.00,99.22
1533.00,99.22
1532.00,99.22
1531.00,99.22
1530.00,99.21
1529.00,99.21
1528.00,99.22
1527.00,99.22
1526.00,99.22
1525.00,99.21
1524.00,99.20
1523.00,99.19
1522.00,99.19
1521.00,99.21
1520.00,99.23
1519.00,99.24
1518.00,99.22
1517.00,99.21
1516.00,99.22
1515.00,99.23
1514.00,99.22
1513.00,99.21
1512.00,99.22
1511.00,99.23
1510.00,99.20
1509.00,99.16
1508.00,99.16
1507.00,99.21
1506.00,99.23
1505.00,99.17
1504.00,99.17
1503.00,99.19
1502.00,99.20
1501.00,99.20
1500.00,99.21
1499.00,99.22
1498.00,99.19
1497.00,99.16
1496.00,99.14
1495.00,99.15
1494.00,99.14
1493.00,99.15
1492.00,99.17
1491.00,99.17
1490.00,99.16
1489.00,99.16
1488.00,99.18
1487.00,99.18
1486.00,99.17
1485.00,99.18
1484.00,99.18
1483.00,99.17
1482.00,99.15
1481.00,99.15
1480.00,99.17
1479.00,99.18
1478.00,99.18
1477.00,99.20
1476.00,99.20
1475.00,99.18
1474.00,99.15
1473.00,99.13
1472.00,99.14
1471.00,99.15
1470.00,99.16
1469.00,99.17
1468.00,99.18
1467.00,99.17
1466.00,99.16
1465.00,99.16
1464.00,99.17
1463.00,99.18
1462.00,99.19
1461.00,99.17
1460.00,99.15
1459.00,99.11
1458.00,99.07
1457.00,99.04
1456.00,99.03
1455.00,99.08
1454.00,99.14
1453.00,99.16
1452.00,99.17
1451.00,99.18
1450.00,99.19
1449.00,99.19
1448.00,99.20
1447.00,99.21
1446.00,99.21
1445.00,99.20
1444.00,99.19
1443.00,99.20
1442.00,99.21
1441.00,99.19
1440.00,99.17
1439.00,99.17
1438.00,99.16
1437.00,99.15
1436.00,99.14
1435.00,99.17
1434.00,99.19
1433.00,99.19
1432.00,99.17
1431.00,99.19
1430.00,99.19
1429.00,99.19
1428.00,99.19
1427.00,99.20
1426.00,99.20
1425.00,99.16
1424.00,99.14
1423.00,99.16
1422.00,99.16
1421.00,99.13
1420.00,99.12
1419.00,99.13
1418.00,99.15
1417.00,99.16
1416.00,99.16
1415.00,99.18
1414.00,99.18
1413.00,99.17
1412.00,99.16
1411.00,99.18
1410.00,99.20
1409.00,99.20
1408.00,99.19
1407.00,99.20
1406.00,99.20
1405.00,99.19
1404.00,99.18
1403.00,99.19
1402.00,99.20
1401.00,99.20
1400.00,99.19
1399.00,99.19
1398.00,99.19
1397.00,99.19
1396.00,99.20
1395.00,99.23
1394.00,99.24
1393.00,99.21
1392.00,99.18
1391.00,99.18
1390.00,99.20
1389.00,99.22
1388.00,99.22
1387.00,99.21
1386.00,99.20
1385.00,99.19
1384.00,99.18
1383.00,99.18
1382.00,99.18
1381.00,99.19
1380.00,99.19
1379.00,99.19
1378.00,99.20
1377.00,99.20
1376.00,99.19
1375.00,99.19
1374.00,99.20
1373.00,99.22
1372.00,99.21
1371.00,99.20
1370.00,99.20
1369.00,99.20
1368.00,99.20
1367.00,99.21
1366.00,99.22
1365.00,99.23
1364.00,99.24
1363.00,99.25
1362.00,99.26
1361.00,99.26
1360.00,99.25
1359.00,99.23
1358.00,99.21
1357.00,99.21
1356.00,99.20
1355.00,99.20
1354.00,99.20
1353.00,99.20
1352.00,99.19
1351.00,99.18
1350.00,99.18
1349.00,99.18
1348.00,99.19
1347.00,99.20
1346.00,99.22
1345.00,99.23
1344.00,99.23
1343.00,99.23
1342.00,99.22
1341.00,99.20
1340.00,99.18
1339.00,99.18
1338.00,99.20
1337.00,99.21
1336.00,99.20
1335.00,99.20
1334.00,99.20
1333.00,99.20
1332.00,99.21
1331.00,99.21
1330.00,99.22
1329.00,99.21
1328.00,99.21
1327.00,99.20
1326.00,99.21
1325.00,99.21
1324.00,99.20
1323.00,99.20
1322.00,99.19
1321.00,99.18
1320.00,99.17
1319.00,99.17
1318.00,99.18
1317.00,99.19
1316.00,99.18
1315.00,99.18
1314.00,99.17
1313.00,99.17
1312.00,99.17
1311.00,99.17
1310.00,99.18
1309.00,99.18
1308.00,99.17
1307.00,99.17
1306.00,99.17
1305.00,99.16
1304.00,99.16
1303.00,99.16
1302.00,99.16
1301.00,99.17
1300.00,99.17
1299.00,99.18
1298.00,99.18
1297.00,99.17
1296.00,99.17
1295.00,99.16
1294.00,99.16
1293.00,99.16
1292.00,99.16
1291.00,99.16
1290.00,99.15
1289.00,99.15
1288.00,99.15
1287.00,99.16
1286.00,99.17
1285.00,99.17
1284.00,99.16
1283.00,99.15
1282.00,99.16
1281.00,99.17
1280.00,99.18
1279.00,99.19
1278.00,99.19
1277.00,99.18
1276.00,99.17
1275.00,99.16
1274.00,99.16
1273.00,99.15
1272.00,99.14
1271.00,99.15
1270.00,99.15
1269.00,99.15
1268.00,99.15
1267.00,99.16
1266.00,99.17
1265.00,99.17
1264.00,99.17
1263.00,99.16
1262.00,99.16
1261.00,99.16
1260.00,99.16
1259.00,99.16
1258.00,99.16
1257.00,99.15
1256.00,99.15
1255.00,99.15
1254.00,99.15
1253.00,99.16
1252.00,99.16
1251.00,99.16
1250.00,99.16
1249.00,99.15
1248.00,99.14
1247.00,99.14
1246.00,99.14
1245.00,99.13
1244.00,99.12
1243.00,99.12
1242.00,99.13
1241.00,99.13
1240.00,99.13
1239.00,99.13
1238.00,99.13
1237.00,99.13
1236.00,99.12
1235.00,99.12
1234.00,99.13
1233.00,99.13
1232.00,99.13
1231.00,99.13
1230.00,99.13
1229.00,99.13
1228.00,99.12
1227.00,99.11
1226.00,99.12
1225.00,99.12
1224.00,99.12
1223.00,99.13
1222.00,99.13
1221.00,99.13
1220.00,99.13
1219.00,99.12
1218.00,99.13
1217.00,99.13
1216.00,99.13
1215.00,99.13
1214.00,99.12
1213.00,99.10
1212.00,99.08
1211.00,99.08
1210.00,99.10
1209.00,99.11
1208.00,99.11
1207.00,99.11
1206.00,99.12
1205.00,99.11
1204.00,99.11
1203.00,99.10
1202.00,99.09
1201.00,99.08
1200.00,99.07
1199.00,99.08
1198.00,99.08
1197.00,99.07
1196.00,99.07
1195.00,99.07
1194.00,99.09
1193.00,99.10
1192.00,99.09
1191.00,99.09
1190.00,99.08
1189.00,99.08
1188.00,99.07
1187.00,99.09
1186.00,99.10
1185.00,99.11
1184.00,99.11
1183.00,99.11
1182.00,99.10
1181.00,99.09
1180.00,99.08
1179.00,99.08
1178.00,99.08
1177.00,99.09
1176.00,99.09
1175.00,99.10
1174.00,99.11
1173.00,99.11
1172.00,99.10
1171.00,99.09
1170.00,99.09
1169.00,99.07
1168.00,99.04
1167.00,99.02
1166.00,99.00
1165.00,99.01
1164.00,99.02
1163.00,99.03
1162.00,99.04
1161.00,99.04
1160.00,99.04
1159.00,99.03
1158.00,99.02
1157.00,99.01
1156.00,99.01
1155.00,99.00
1154.00,99.00
1153.00,99.00
1152.00,99.01
1151.00,99.03
1150.00,99.04
1149.00,99.04
1148.00,99.04
1147.00,99.03
1146.00,99.02
1145.00,99.01
1144.00,99.00
1143.00,99.00
1142.00,99.01
1141.00,99.01
1140.00,99.01
1139.00,99.01
1138.00,99.02
1137.00,99.02
1136.00,99.03
1135.00,99.04
1134.00,99.04
1133.00,99.02
1132.00,99.00
1131.00,99.00
1130.00,99.01
1129.00,99.03
1128.00,99.04
1127.00,99.05
1126.00,99.05
1125.00,99.05
1124.00,99.03
1123.00,99.02
1122.00,99.00
1121.00,98.99
1120.00,98.99
1119.00,98.99
1118.00,98.99
1117.00,98.99
1116.00,98.98
1115.00,98.98
1114.00,98.98
1113.00,98.97
1112.00,98.95
1111.00,98.93
1110.00,98.91
1109.00,98.89
1108.00,98.88
1107.00,98.89
1106.00,98.91
1105.00,98.91
1104.00,98.90
1103.00,98.88
1102.00,98.86
1101.00,98.84
1100.00,98.82
1099.00,98.83
1098.00,98.84
1097.00,98.84
1096.00,98.85
1095.00,98.87
1094.00,98.90
1093.00,98.93
1092.00,98.93
1091.00,98.92
1090.00,98.90
1089.00,98.87
1088.00,98.85
1087.00,98.85
1086.00,98.87
1085.00,98.89
1084.00,98.88
1083.00,98.87
1082.00,98.86
1081.00,98.84
1080.00,98.82
1079.00,98.80
1078.00,98.80
1077.00,98.79
1076.00,98.79
1075.00,98.79
1074.00,98.78
1073.00,98.76
1072.00,98.75
1071.00,98.75
1070.00,98.74
1069.00,98.71
1068.00,98.68
1067.00,98.67
1066.00,98.67
1065.00,98.67
1064.00,98.68
1063.00,98.69
1062.00,98.70
1061.00,98.71
1060.00,98.72
1059.00,98.72
1058.00,98.72
1057.00,98.71
1056.00,98.70
1055.00,98.72
1054.00,98.72
1053.00,98.69
1052.00,98.64
1051.00,98.59
1050.00,98.57
1049.00,98.54
1048.00,98.52
1047.00,98.53
1046.00,98.55
1045.00,98.54
1044.00,98.52
1043.00,98.53
1042.00,98.58
1041.00,98.63
1040.00,98.68
1039.00,98.73
1038.00,98.75
1037.00,98.75
1036.00,98.73
1035.00,98.72
1034.00,98.70
1033.00,98.66
1032.00,98.63
1031.00,98.62
1030.00,98.62
1029.00,98.60
1028.00,98.57
1027.00,98.56
1026.00,98.56
1025.00,98.54
1024.00,98.52
1023.00,98.51
1022.00,98.51
1021.00,98.48
1020.00,98.41
1019.00,98.35
1018.00,98.35
1017.00,98.40
1016.00,98.49
1015.00,98.57
1014.00,98.60
1013.00,98.59
1012.00,98.55
1011.00,98.52
1010.00,98.50
1009.00,98.47
1008.00,98.43
1007.00,98.41
1006.00,98.40
1005.00,98.40
1004.00,98.42
1003.00,98.45
1002.00,98.44
1001.00,98.36
1000.00,98.24
999.00,98.16
998.00,98.12
997.00,98.11
996.00,98.13
995.00,98.16
994.00,98.14
993.00,98.10
992.00,98.11
991.00,98.21
990.00,98.35
989.00,98.43
988.00,98.46
987.00,98.47
986.00,98.44
985.00,98.34
984.00,98.22
983.00,98.13
982.00,98.11
981.00,98.16
980.00,98.27
979.00,98.39
978.00,98.41
977.00,98.28
976.00,98.13
975.00,98.08
974.00,98.08
973.00,98.04
972.00,97.95
971.00,97.90
970.00,97.92
969.00,97.93
968.00,97.95
967.00,98.01
966.00,98.06
965.00,98.01
964.00,97.92
963.00,97.91
962.00,97.95
961.00,97.92
960.00,97.77
959.00,97.60
958.00,97.46
957.00,97.35
956.00,97.34
955.00,97.51
954.00,97.74
953.00,97.83
952.00,97.76
951.00,97.70
950.00,97.78
949.00,97.97
948.00,98.20
947.00,98.41
946.00,98.41
945.00,98.09
944.00,97.63
943.00,97.29
942.00,97.12
941.00,96.97
940.00,96.94
939.00,97.22
938.00,97.68
937.00,97.90
936.00,97.65
935.00,97.12
934.00,96.59
933.00,96.34
932.00,96.64
931.00,97.53
930.00,98.44
929.00,98.73
928.00,98.44
927.00,98.11
926.00,97.94
925.00,97.59
924.00,96.84
923.00,96.00
922.00,95.33
921.00,94.86
920.00,94.82
919.00,95.43
918.00,96.18
917.00,96.30
916.00,95.91
915.00,95.88
914.00,96.68
913.00,97.78
912.00,98.50
911.00,98.59
910.00,98.05
909.00,97.09
908.00,96.43
907.00,96.77
906.00,97.57
905.00,97.53
904.00,96.40
903.00,95.32
902.00,95.11
901.00,95.60
900.00,96.72
899.00,98.68
898.00,100.57
897.00,100.67
896.00,99.50
895.00,99.05
894.00,99.15
893.00,97.99
892.00,95.55
891.00,94.79
890.00,96.53
889.00,98.98
888.00,102.58
887.00,105.71
886.00,106.62
885.00,105.08
884.00,97.68
883.00,87.71
882.00,83.68
881.00,83.11
880.00,83.81
879.00,88.30
878.00,91.05
877.00,93.27
876.00,95.14
875.00,87.34
874.00,81.13
873.00,76.13
872.00,87.89
871.00,120.50
870.00,154.07
869.00,203.28
868.00,238.86
867.00,216.84
866.00,168.51
865.00,131.99
864.00,117.97
863.00,115.97
862.00,133.10
861.00,194.70
860.00,278.48
859.00,306.07
858.00,215.99
857.00,178.08
856.00,134.26
855.00,92.86
854.00,80.65
853.00,85.32
852.00,80.61
851.00,89.74
850.00,99.98
849.00,95.94
848.00,80.90
847.00,48.16
846.00,66.65
845.00,35.45
844.00,33.75
843.00,61.83
842.00,151.48
841.00,196.46
840.00,186.97
839.00,185.39
838.00,159.72
837.00,191.57
836.00,196.32
835.00,195.88
834.00,184.00
833.00,162.71
832.00,160.08
831.00,350.83
830.00,1050.05
829.00,869.74
828.00,127.81
827.00,44.46
826.00,104.24
825.00,42.99
824.00,52.62
823.00,115.32
822.00,168.76
821.00,139.72
820.00,129.86
819.00,139.90
818.00,145.78
817.00,115.09
816.00,96.06
815.00,73.11
814.00,28.59
813.00,64.98
812.00,86.88
811.00,82.82
810.00,72.36
809.00,73.68
808.00,78.21
807.00,73.36
806.00,115.29
805.00,194.67
804.00,189.51
803.00,211.23
802.00,241.38
801.00,173.87
800.00,121.90
799.00,70.73
798.00,13.94
797.00,14.26
796.00,35.30
795.00,96.73
794.00,267.60
793.00,218.67
792.00,174.19
791.00,179.60
790.00,160.31
789.00,116.77
788.00,106.67
787.00,107.03
786.00,161.03
785.00,253.04
784.00,428.08
783.00,710.00
782.00,354.01
781.00,118.69
780.00,68.12
779.00,43.97
778.00,39.90
777.00,159.07
776.00,185.11
775.00,447.53
774.00,1289.11
773.00,487.23
772.00,264.12
771.00,457.23
770.00,703.38
769.00,370.70
768.00,173.35
767.00,175.80
766.00,130.75
765.00,110.78
764.00,96.21
763.00,101.31
762.00,142.28
761.00,150.13
760.00,124.34
759.00,98.16
758.00,63.26
757.00,75.86
756.00,101.47
755.00,128.32
754.00,158.41
753.00,142.27
752.00,127.28
751.00,126.10
750.00,130.03
749.00,134.25
748.00,136.02
747.00,124.07
746.00,131.89
745.00,154.94
744.00,169.23
743.00,156.39
742.00,317.97
741.00,392.39
740.00,440.93
739.00,1067.93
738.00,306.66
737.00,403.18
736.00,133.96
735.00,39.51
734.00,66.42
733.00,52.06
732.00,89.05
731.00,108.52
730.00,219.84
729.00,218.71
728.00,191.06
727.00,220.63
726.00,238.40
725.00,176.82
724.00,142.39
723.00,154.01
722.00,325.07
721.00,379.46
720.00,279.96
719.00,262.75
718.00,239.06
717.00,217.88
716.00,152.68
715.00,134.39
714.00,102.95
713.00,78.36
712.00,73.71
711.00,69.46
710.00,72.93
709.00,93.86
708.00,118.52
707.00,147.56
706.00,187.60
705.00,184.28
704.00,155.47
703.00,139.39
702.00,113.39
701.00,103.75
700.00,114.17
699.00,170.56
698.00,434.16
697.00,620.10
696.00,560.92
695.00,418.90
694.00,165.64
693.00,125.41
692.00,138.47
691.00,155.21
690.00,203.16
689.00,174.73
688.00,156.44
687.00,153.36
686.00,126.28
685.00,109.10
684.00,129.45
683.00,180.69
682.00,211.73
681.00,218.68
680.00,175.47
679.00,110.40
678.00,53.90
677.00,52.60
676.00,65.25
675.00,69.39
674.00,81.43
673.00,110.31
672.00,123.60
671.00,114.53
670.00,98.86
669.00,103.30
668.00,114.91
667.00,112.11
666.00,95.92
665.00,121.95
664.00,158.90
663.00,222.72
662.00,229.56
661.00,111.99
660.00,67.08
659.00,45.99
658.00,23.37
657.00,56.32
656.00,90.11
655.00,173.21
654.00,512.53
653.00,423.83
652.00,295.29
651.00,327.81
650.00,343.20
649.00,165.36
648.00,120.36
647.00,130.12
646.00,127.34
645.00,112.48
644.00,97.58
643.00,91.91
642.00,93.14
641.00,108.97
640.00,117.08
639.00,152.10
638.00,289.29
637.00,243.28
636.00,140.45
635.00,91.97
634.00,88.76
633.00,84.24
632.00,80.76
631.00,103.23
630.00,267.57
629.00,293.27
628.00,222.36
627.00,231.11
626.00,153.63
625.00,113.10
624.00,113.01
623.00,101.20
622.00,71.64
621.00,57.83
620.00,75.96
619.00,84.79
618.00,98.04
617.00,118.98
616.00,119.05
615.00,114.35
614.00,109.85
613.00,128.69
612.00,137.40
611.00,175.93
610.00,314.88
609.00,169.91
608.00,110.84
607.00,100.31
606.00,93.97
605.00,107.51
604.00,122.51
603.00,154.33
602.00,189.47
601.00,134.23
600.00,94.22
599.00,93.78
598.00,108.68
597.00,94.29
596.00,104.72
595.00,111.02
594.00,103.15
593.00,117.54
592.00,143.28
591.00,211.47
590.00,347.12
589.00,262.04
588.00,124.98
587.00,89.33
586.00,65.50
585.00,71.36
584.00,80.32
583.00,92.37
582.00,122.23
581.00,101.14
580.00,109.12
579.00,168.93
578.00,309.47
577.00,377.47
576.00,298.12
575.00,301.11
574.00,218.75
573.00,78.38
572.00,77.81
571.00,96.19
570.00,97.31
569.00,103.89
568.00,112.56
567.00,114.19
566.00,104.90
565.00,108.18
564.00,120.77
563.00,144.42
562.00,269.47
561.00,292.10
560.00,214.98
559.00,179.95
558.00,105.45
557.00,109.99
556.00,115.73
555.00,99.32
554.00,93.16
553.00,102.08
552.00,110.88
551.00,115.22
550.00,118.77
549.00,113.95
548.00,107.48
547.00,112.44
546.00,166.02
545.00,283.87
544.00,330.83
543.00,524.44
542.00,687.33
541.00,408.89
540.00,287.33
539.00,659.84
538.00,891.50
537.00,318.62
536.00,142.36
535.00,134.78
534.00,127.62
533.00,110.19
532.00,93.29
531.00,85.71
530.00,114.29
529.00,124.57
528.00,125.65
527.00,121.51
526.00,44.30
525.00,168.34
524.00,286.53
523.00,263.78
522.00,168.04
521.00,90.88
520.00,84.39
519.00,82.03
518.00,105.79
517.00,143.97
516.00,170.59
515.00,163.44
514.00,67.76
513.00,68.67
512.00,83.42
511.00,100.61
510.00,166.47
509.00,158.84
508.00,133.36
507.00,91.62
506.00,27.12
505.00,39.86
504.00,69.77
503.00,100.68
502.00,177.83
501.00,142.64
500.00,105.68
499.00,81.92
498.00,71.45
497.00,87.55
496.00,107.13
495.00,131.71
494.00,163.72
493.00,141.41
492.00,133.86
491.00,184.70
490.00,317.11
489.00,336.56
488.00,253.78
487.00,243.66
486.00,231.28
485.00,192.73
484.00,199.12
483.00,248.44
482.00,161.82
481.00,190.45
480.00,260.72
479.00,277.14
478.00,143.62
477.00,38.06
476.00,29.23
475.00,15.40
474.00,41.11
473.00,146.10
472.00,353.90
471.00,1160.30
470.00,148.53
469.00,173.34
468.00,680.10
467.00,203.18
466.00,110.21
465.00,86.41
464.00,90.09
463.00,85.43
462.00,60.61
461.00,71.79
460.00,81.53
459.00,75.18
458.00,53.09
457.00,49.18
456.00,56.57
455.00,64.75
454.00,182.69
453.00,219.22
452.00,209.88
451.00,241.04
450.00,232.58
