Created as New Dataset,Sample 002 By Administrator Date Monday, October 13 2025
cm-1,%T
4000.00,101.75
3999.00,101.77
3998.00,101.79
3997.00,101.80
3996.00,101.81
3995.00,101.81
3994.00,101.79
3993.00,101.78
3992.00,101.77
3991.00,101.76
3990.00,101.76
3989.00,101.75
3988.00,101.75
3987.00,101.75
3986.00,101.76
3985.00,101.77
3984.00,101.78
3983.00,101.78
3982.00,101.78
3981.00,101.77
3980.00,101.76
3979.00,101.76
3978.00,101.76
3977.00,101.78
3976.00,101.80
3975.00,101.81
3974.00,101.81
3973.00,101.80
3972.00,101.79
3971.00,101.77
3970.00,101.76
3969.00,101.75
3968.00,101.75
3967.00,101.75
3966.00,101.75
3965.00,101.75
3964.00,101.75
3963.00,101.76
3962.00,101.77
3961.00,101.77
3960.00,101.77
3959.00,101.78
3958.00,101.79
3957.00,101.80
3956.00,101.82
3955.00,101.84
3954.00,101.85
3953.00,101.87
3952.00,101.87
3951.00,101.86
3950.00,101.84
3949.00,101.80
3948.00,101.76
3947.00,101.73
3946.00,101.72
3945.00,101.74
3944.00,101.76
3943.00,101.79
3942.00,101.79
3941.00,101.76
3940.00,101.72
3939.00,101.71
3938.00,101.73
3937.00,101.76
3936.00,101.77
3935.00,101.75
3934.00,101.73
3933.00,101.73
3932.00,101.76
3931.00,101.80
3930.00,101.83
3929.00,101.85
3928.00,101.86
3927.00,101.88
3926.00,101.91
3925.00,101.94
3924.00,101.92
3923.00,101.85
3922.00,101.75
3921.00,101.67
3920.00,101.60
3919.00,101.54
3918.00,101.50
3917.00,101.48
3916.00,101.50
3915.00,101.54
3914.00,101.59
3913.00,101.64
3912.00,101.68
3911.00,101.73
3910.00,101.76
3909.00,101.78
3908.00,101.78
3907.00,101.74
3906.00,101.65
3905.00,101.53
3904.00,101.37
3903.00,101.20
3902.00,101.08
3901.00,101.03
3900.00,101.06
3899.00,101.15
3898.00,101.27
3897.00,101.40
3896.00,101.53
3895.00,101.63
3894.00,101.69
3893.00,101.70
3892.00,101.68
3891.00,101.63
3890.00,101.53
3889.00,101.39
3888.00,101.22
3887.00,101.13
3886.00,101.21
3885.00,101.40
3884.00,101.54
3883.00,101.60
3882.00,101.62
3881.00,101.64
3880.00,101.63
3879.00,101.58
3878.00,101.53
3877.00,101.54
3876.00,101.64
3875.00,101.80
3874.00,101.93
3873.00,101.90
3872.00,101.72
3871.00,101.55
3870.00,101.50
3869.00,101.49
3868.00,101.45
3867.00,101.40
3866.00,101.42
3865.00,101.57
3864.00,101.74
3863.00,101.76
3862.00,101.66
3861.00,101.58
3860.00,101.61
3859.00,101.69
3858.00,101.65
3857.00,101.33
3856.00,100.80
3855.00,100.41
3854.00,100.45
3853.00,100.63
3852.00,100.68
3851.00,100.78
3850.00,101.01
3849.00,101.28
3848.00,101.51
3847.00,101.69
3846.00,101.79
3845.00,101.87
3844.00,101.93
3843.00,101.98
3842.00,101.97
3841.00,101.88
3840.00,101.76
3839.00,101.69
3838.00,101.67
3837.00,101.65
3836.00,101.59
3835.00,101.52
3834.00,101.46
3833.00,101.45
3832.00,101.48
3831.00,101.55
3830.00,101.62
3829.00,101.70
3828.00,101.82
3827.00,101.93
3826.00,102.00
3825.00,101.94
3824.00,101.75
3823.00,101.58
3822.00,101.63
3821.00,101.80
3820.00,101.82
3819.00,101.64
3818.00,101.39
3817.00,101.28
3816.00,101.36
3815.00,101.47
3814.00,101.48
3813.00,101.46
3812.00,101.49
3811.00,101.52
3810.00,101.48
3809.00,101.36
3808.00,101.29
3807.00,101.35
3806.00,101.45
3805.00,101.44
3804.00,101.30
3803.00,101.22
3802.00,101.38
3801.00,101.66
3800.00,101.80
3799.00,101.78
3798.00,101.72
3797.00,101.70
3796.00,101.71
3795.00,101.69
3794.00,101.64
3793.00,101.60
3792.00,101.61
3791.00,101.67
3790.00,101.72
3789.00,101.76
3788.00,101.80
3787.00,101.86
3786.00,101.94
3785.00,101.99
3784.00,101.98
3783.00,101.92
3782.00,101.86
3781.00,101.84
3780.00,101.87
3779.00,101.88
3778.00,101.81
3777.00,101.70
3776.00,101.63
3775.00,101.62
3774.00,101.64
3773.00,101.63
3772.00,101.59
3771.00,101.58
3770.00,101.61
3769.00,101.61
3768.00,101.56
3767.00,101.50
3766.00,101.48
3765.00,101.49
3764.00,101.50
3763.00,101.46
3762.00,101.38
3761.00,101.31
3760.00,101.24
3759.00,101.06
3758.00,100.66
3757.00,100.07
3756.00,99.29
3755.00,98.23
3754.00,96.69
3753.00,94.55
3752.00,91.76
3751.00,88.29
3750.00,84.27
3749.00,80.09
3748.00,75.98
3747.00,71.70
3746.00,67.02
3745.00,62.32
3744.00,58.12
3743.00,54.30
3742.00,50.37
3741.00,46.29
3740.00,42.67
3739.00,40.13
3738.00,38.45
3737.00,36.98
3736.00,35.43
3735.00,33.89
3734.00,32.36
3733.00,30.81
3732.00,29.44
3731.00,28.50
3730.00,28.04
3729.00,28.07
3728.00,28.64
3727.00,29.76
3726.00,31.24
3725.00,32.83
3724.00,34.43
3723.00,36.14
3722.00,38.13
3721.00,40.58
3720.00,43.77
3719.00,47.84
3718.00,52.34
3717.00,55.99
3716.00,57.26
3715.00,55.46
3714.00,51.10
3713.00,45.79
3712.00,41.44
3711.00,38.98
3710.00,37.95
3709.00,37.50
3708.00,37.36
3707.00,37.56
3706.00,38.14
3705.00,39.11
3704.00,40.47
3703.00,42.06
3702.00,43.57
3701.00,44.92
3700.00,46.30
3699.00,47.94
3698.00,49.80
3697.00,51.73
3696.00,53.58
3695.00,55.30
3694.00,56.97
3693.00,58.97
3692.00,61.62
3691.00,64.88
3690.00,68.07
3689.00,70.41
3688.00,71.77
3687.00,72.75
3686.00,74.02
3685.00,75.73
3684.00,77.67
3683.00,79.52
3682.00,81.14
3681.00,82.54
3680.00,83.65
3679.00,84.41
3678.00,84.98
3677.00,85.89
3676.00,87.41
3675.00,89.02
3674.00,90.10
3673.00,90.73
3672.00,91.29
3671.00,92.09
3670.00,93.07
3669.00,93.90
3668.00,94.46
3667.00,94.97
3666.00,95.52
3665.00,96.06
3664.00,96.54
3663.00,96.91
3662.00,97.17
3661.00,97.29
3660.00,97.23
3659.00,97.00
3658.00,96.66
3657.00,96.35
3656.00,96.10
3655.00,95.86
3654.00,95.49
3653.00,94.80
3652.00,93.75
3651.00,92.44
3650.00,90.98
3649.00,89.26
3648.00,87.14
3647.00,84.72
3646.00,82.13
3645.00,79.48
3644.00,76.87
3643.00,74.33
3642.00,71.81
3641.00,69.27
3640.00,66.78
3639.00,64.44
3638.00,62.26
3637.00,60.04
3636.00,57.66
3635.00,55.22
3634.00,52.95
3633.00,50.91
3632.00,48.94
3631.00,47.00
3630.00,45.31
3629.00,44.07
3628.00,43.18
3627.00,42.51
3626.00,42.08
3625.00,42.11
3624.00,42.92
3623.00,44.67
3622.00,47.14
3621.00,49.77
3620.00,52.17
3619.00,54.46
3618.00,57.38
3617.00,61.61
3616.00,66.87
3615.00,71.60
3614.00,73.67
3613.00,72.01
3612.00,67.35
3611.00,61.62
3610.00,56.63
3609.00,53.26
3608.00,51.34
3607.00,50.19
3606.00,49.32
3605.00,48.49
3604.00,47.70
3603.00,47.17
3602.00,47.16
3601.00,47.64
3600.00,48.22
3599.00,48.62
3598.00,49.02
3597.00,49.80
3596.00,50.95
3595.00,52.16
3594.00,53.29
3593.00,54.60
3592.00,56.37
3591.00,58.56
3590.00,60.88
3589.00,63.05
3588.00,65.06
3587.00,67.08
3586.00,69.35
3585.00,71.90
3584.00,74.42
3583.00,76.54
3582.00,78.09
3581.00,79.22
3580.00,80.03
3579.00,80.47
3578.00,80.50
3577.00,80.27
3576.00,80.03
3575.00,80.03
3574.00,80.28
3573.00,80.66
3572.00,81.03
3571.00,81.34
3570.00,81.64
3569.00,82.07
3568.00,82.64
3567.00,83.29
3566.00,83.98
3565.00,84.77
3564.00,85.67
3563.00,86.58
3562.00,87.40
3561.00,88.16
3560.00,88.92
3559.00,89.68
3558.00,90.44
3557.00,91.19
3556.00,91.91
3555.00,92.58
3554.00,93.20
3553.00,93.79
3552.00,94.34
3551.00,94.81
3550.00,95.21
3549.00,95.56
3548.00,95.89
3547.00,96.23
3546.00,96.56
3545.00,96.85
3544.00,97.13
3543.00,97.38
3542.00,97.62
3541.00,97.87
3540.00,98.12
3539.00,98.37
3538.00,98.62
3537.00,98.87
3536.00,99.10
3535.00,99.34
3534.00,99.58
3533.00,99.85
3532.00,100.15
3531.00,100.45
3530.00,100.70
3529.00,100.87
3528.00,100.91
3527.00,100.83
3526.00,100.69
3525.00,100.54
3524.00,100.43
3523.00,100.33
3522.00,100.23
3521.00,100.14
3520.00,100.07
3519.00,100.04
3518.00,100.04
3517.00,100.05
3516.00,100.07
3515.00,100.09
3514.00,100.13
3513.00,100.19
3512.00,100.27
3511.00,100.35
3510.00,100.43
3509.00,100.50
3508.00,100.56
3507.00,100.64
3506.00,100.73
3505.00,100.85
3504.00,100.96
3503.00,101.04
3502.00,101.07
3501.00,101.08
3500.00,101.11
3499.00,101.16
3498.00,101.23
3497.00,101.29
3496.00,101.33
3495.00,101.35
3494.00,101.35
3493.00,101.35
3492.00,101.37
3491.00,101.41
3490.00,101.45
3489.00,101.49
3488.00,101.51
3487.00,101.51
3486.00,101.50
3485.00,101.51
3484.00,101.54
3483.00,101.58
3482.00,101.60
3481.00,101.60
3480.00,101.58
3479.00,101.56
3478.00,101.55
3477.00,101.56
3476.00,101.57
3475.00,101.58
3474.00,101.57
3473.00,101.57
3472.00,101.56
3471.00,101.57
3470.00,101.58
3469.00,101.59
3468.00,101.61
3467.00,101.62
3466.00,101.63
3465.00,101.64
3464.00,101.66
3463.00,101.67
3462.00,101.67
3461.00,101.66
3460.00,101.64
3459.00,101.62
3458.00,101.61
3457.00,101.62
3456.00,101.63
3455.00,101.64
3454.00,101.64
3453.00,101.65
3452.00,101.65
3451.00,101.66
3450.00,101.68
3449.00,101.72
3448.00,101.75
3447.00,101.76
3446.00,101.74
3445.00,101.70
3444.00,101.68
3443.00,101.67
3442.00,101.68
3441.00,101.67
3440.00,101.66
3439.00,101.64
3438.00,101.63
3437.00,101.64
3436.00,101.64
3435.00,101.65
3434.00,101.65
3433.00,101.66
3432.00,101.66
3431.00,101.66
3430.00,101.66
3429.00,101.66
3428.00,101.66
3427.00,101.65
3426.00,101.65
3425.00,101.66
3424.00,101.67
3423.00,101.69
3422.00,101.71
3421.00,101.72
3420.00,101.72
3419.00,101.69
3418.00,101.66
3417.00,101.64
3416.00,101.64
3415.00,101.64
3414.00,101.64
3413.00,101.64
3412.00,101.64
3411.00,101.64
3410.00,101.64
3409.00,101.65
3408.00,101.65
3407.00,101.65
3406.00,101.65
3405.00,101.64
3404.00,101.64
3403.00,101.64
3402.00,101.64
3401.00,101.64
3400.00,101.64
3399.00,101.64
3398.00,101.64
3397.00,101.64
3396.00,101.65
3395.00,101.66
3394.00,101.66
3393.00,101.67
3392.00,101.67
3391.00,101.66
3390.00,101.65
3389.00,101.64
3388.00,101.64
3387.00,101.65
3386.00,101.65
3385.00,101.65
3384.00,101.65
3383.00,101.64
3382.00,101.63
3381.00,101.63
3380.00,101.63
3379.00,101.63
3378.00,101.63
3377.00,101.63
3376.00,101.62
3375.00,101.62
3374.00,101.62
3373.00,101.62
3372.00,101.61
3371.00,101.60
3370.00,101.60
3369.00,101.61
3368.00,101.62
3367.00,101.64
3366.00,101.65
3365.00,101.65
3364.00,101.65
3363.00,101.64
3362.00,101.63
3361.00,101.62
3360.00,101.61
3359.00,101.60
3358.00,101.59
3357.00,101.59
3356.00,101.59
3355.00,101.59
3354.00,101.59
3353.00,101.60
3352.00,101.61
3351.00,101.61
3350.00,101.62
3349.00,101.62
3348.00,101.62
3347.00,101.62
3346.00,101.62
3345.00,101.63
3344.00,101.63
3343.00,101.62
3342.00,101.61
3341.00,101.61
3340.00,101.61
3339.00,101.62
3338.00,101.64
3337.00,101.66
3336.00,101.66
3335.00,101.65
3334.00,101.64
3333.00,101.63
3332.00,101.62
3331.00,101.62
3330.00,101.62
3329.00,101.63
3328.00,101.63
3327.00,101.64
3326.00,101.63
3325.00,101.63
3324.00,101.63
3323.00,101.63
3322.00,101.62
3321.00,101.62
3320.00,101.63
3319.00,101.64
3318.00,101.64
3317.00,101.63
3316.00,101.63
3315.00,101.63
3314.00,101.64
3313.00,101.65
3312.00,101.65
3311.00,101.65
3310.00,101.65
3309.00,101.65
3308.00,101.64
3307.00,101.62
3306.00,101.60
3305.00,101.60
3304.00,101.61
3303.00,101.62
3302.00,101.62
3301.00,101.61
3300.00,101.61
3299.00,101.61
3298.00,101.62
3297.00,101.62
3296.00,101.63
3295.00,101.63
3294.00,101.64
3293.00,101.64
3292.00,101.65
3291.00,101.64
3290.00,101.64
3289.00,101.64
3288.00,101.65
3287.00,101.64
3286.00,101.64
3285.00,101.64
3284.00,101.64
3283.00,101.63
3282.00,101.63
3281.00,101.64
3280.00,101.64
3279.00,101.65
3278.00,101.66
3277.00,101.68
3276.00,101.69
3275.00,101.69
3274.00,101.69
3273.00,101.67
3272.00,101.65
3271.00,101.64
3270.00,101.62
3269.00,101.62
3268.00,101.63
3267.00,101.64
3266.00,101.65
3265.00,101.65
3264.00,101.65
3263.00,101.64
3262.00,101.64
3261.00,101.65
3260.00,101.65
3259.00,101.66
3258.00,101.66
3257.00,101.66
3256.00,101.66
3255.00,101.66
3254.00,101.66
3253.00,101.65
3252.00,101.64
3251.00,101.63
3250.00,101.63
3249.00,101.63
3248.00,101.64
3247.00,101.65
3246.00,101.67
3245.00,101.67
3244.00,101.67
3243.00,101.66
3242.00,101.65
3241.00,101.65
3240.00,101.65
3239.00,101.65
3238.00,101.65
3237.00,101.65
3236.00,101.64
3235.00,101.63
3234.00,101.63
3233.00,101.63
3232.00,101.63
3231.00,101.63
3230.00,101.64
3229.00,101.64
3228.00,101.64
3227.00,101.64
3226.00,101.63
3225.00,101.63
3224.00,101.63
3223.00,101.63
3222.00,101.64
3221.00,101.65
3220.00,101.66
3219.00,101.66
3218.00,101.65
3217.00,101.65
3216.00,101.65
3215.00,101.65
3214.00,101.65
3213.00,101.65
3212.00,101.65
3211.00,101.65
3210.00,101.66
3209.00,101.66
3208.00,101.65
3207.00,101.64
3206.00,101.63
3205.00,101.63
3204.00,101.63
3203.00,101.63
3202.00,101.62
3201.00,101.62
3200.00,101.63
3199.00,101.63
3198.00,101.64
3197.00,101.65
3196.00,101.64
3195.00,101.63
3194.00,101.62
3193.00,101.61
3192.00,101.60
3191.00,101.60
3190.00,101.60
3189.00,101.60
3188.00,101.62
3187.00,101.63
3186.00,101.64
3185.00,101.64
3184.00,101.64
3183.00,101.63
3182.00,101.62
3181.00,101.63
3180.00,101.63
3179.00,101.64
3178.00,101.64
3177.00,101.63
3176.00,101.62
3175.00,101.61
3174.00,101.60
3173.00,101.60
3172.00,101.61
3171.00,101.61
3170.00,101.61
3169.00,101.61
3168.00,101.62
3167.00,101.62
3166.00,101.61
3165.00,101.61
3164.00,101.61
3163.00,101.61
3162.00,101.61
3161.00,101.61
3160.00,101.60
3159.00,101.60
3158.00,101.60
3157.00,101.60
3156.00,101.59
3155.00,101.59
3154.00,101.60
3153.00,101.60
3152.00,101.61
3151.00,101.61
3150.00,101.60
3149.00,101.60
3148.00,101.59
3147.00,101.59
3146.00,101.59
3145.00,101.60
3144.00,101.60
3143.00,101.61
3142.00,101.61
3141.00,101.60
3140.00,101.60
3139.00,101.59
3138.00,101.59
3137.00,101.60
3136.00,101.61
3135.00,101.63
3134.00,101.64
3133.00,101.65
3132.00,101.64
3131.00,101.63
3130.00,101.62
3129.00,101.62
3128.00,101.63
3127.00,101.63
3126.00,101.63
3125.00,101.64
3124.00,101.64
3123.00,101.64
3122.00,101.63
3121.00,101.63
3120.00,101.62
3119.00,101.62
3118.00,101.63
3117.00,101.63
3116.00,101.63
3115.00,101.62
3114.00,101.61
3113.00,101.61
3112.00,101.61
3111.00,101.61
3110.00,101.61
3109.00,101.61
3108.00,101.61
3107.00,101.60
3106.00,101.60
3105.00,101.60
3104.00,101.61
3103.00,101.61
3102.00,101.62
3101.00,101.63
3100.00,101.63
3099.00,101.62
3098.00,101.62
3097.00,101.62
3096.00,101.62
3095.00,101.62
3094.00,101.61
3093.00,101.59
3092.00,101.58
3091.00,101.58
3090.00,101.58
3089.00,101.58
3088.00,101.59
3087.00,101.59
3086.00,101.59
3085.00,101.59
3084.00,101.60
3083.00,101.60
3082.00,101.61
3081.00,101.61
3080.00,101.62
3079.00,101.62
3078.00,101.61
3077.00,101.61
3076.00,101.61
3075.00,101.60
3074.00,101.60
3073.00,101.60
3072.00,101.60
3071.00,101.59
3070.00,101.60
3069.00,101.61
3068.00,101.62
3067.00,101.63
3066.00,101.64
3065.00,101.64
3064.00,101.63
3063.00,101.61
3062.00,101.59
3061.00,101.59
3060.00,101.59
3059.00,101.59
3058.00,101.60
3057.00,101.61
3056.00,101.62
3055.00,101.61
3054.00,101.60
3053.00,101.59
3052.00,101.58
3051.00,101.58
3050.00,101.59
3049.00,101.60
3048.00,101.61
3047.00,101.60
3046.00,101.59
3045.00,101.58
3044.00,101.57
3043.00,101.57
3042.00,101.56
3041.00,101.56
3040.00,101.57
3039.00,101.58
3038.00,101.58
3037.00,101.59
3036.00,101.60
3035.00,101.60
3034.00,101.61
3033.00,101.62
3032.00,101.62
3031.00,101.62
3030.00,101.61
3029.00,101.60
3028.00,101.59
3027.00,101.59
3026.00,101.59
3025.00,101.58
3024.00,101.58
3023.00,101.57
3022.00,101.57
3021.00,101.57
3020.00,101.57
3019.00,101.57
3018.00,101.56
3017.00,101.57
3016.00,101.57
3015.00,101.58
3014.00,101.59
3013.00,101.60
3012.00,101.60
3011.00,101.60
3010.00,101.59
3009.00,101.58
3008.00,101.58
3007.00,101.58
3006.00,101.58
3005.00,101.57
3004.00,101.57
3003.00,101.57
3002.00,101.57
3001.00,101.57
3000.00,101.57
2999.00,101.57
2998.00,101.57
2997.00,101.57
2996.00,101.58
2995.00,101.58
2994.00,101.57
2993.00,101.57
2992.00,101.57
2991.00,101.57
2990.00,101.58
2989.00,101.58
2988.00,101.58
2987.00,101.57
2986.00,101.57
2985.00,101.56
2984.00,101.56
2983.00,101.56
2982.00,101.56
2981.00,101.56
2980.00,101.56
2979.00,101.55
2978.00,101.55
2977.00,101.56
2976.00,101.56
2975.00,101.57
2974.00,101.57
2973.00,101.57
2972.00,101.56
2971.00,101.56
2970.00,101.56
2969.00,101.57
2968.00,101.58
2967.00,101.58
2966.00,101.57
2965.00,101.57
2964.00,101.56
2963.00,101.56
2962.00,101.57
2961.00,101.57
2960.00,101.56
2959.00,101.56
2958.00,101.56
2957.00,101.56
2956.00,101.57
2955.00,101.57
2954.00,101.57
2953.00,101.57
2952.00,101.56
2951.00,101.56
2950.00,101.56
2949.00,101.56
2948.00,101.56
2947.00,101.56
2946.00,101.56
2945.00,101.55
2944.00,101.56
2943.00,101.56
2942.00,101.56
2941.00,101.56
2940.00,101.56
2939.00,101.56
2938.00,101.55
2937.00,101.55
2936.00,101.54
2935.00,101.53
2934.00,101.53
2933.00,101.53
2932.00,101.54
2931.00,101.54
2930.00,101.55
2929.00,101.55
2928.00,101.55
2927.00,101.55
2926.00,101.54
2925.00,101.54
2924.00,101.53
2923.00,101.52
2922.00,101.51
2921.00,101.51
2920.00,101.50
2919.00,101.49
2918.00,101.48
2917.00,101.48
2916.00,101.49
2915.00,101.50
2914.00,101.52
2913.00,101.53
2912.00,101.53
2911.00,101.53
2910.00,101.52
2909.00,101.53
2908.00,101.53
2907.00,101.54
2906.00,101.54
2905.00,101.54
2904.00,101.54
2903.00,101.53
2902.00,101.53
2901.00,101.54
2900.00,101.54
2899.00,101.54
2898.00,101.54
2897.00,101.55
2896.00,101.56
2895.00,101.56
2894.00,101.55
2893.00,101.55
2892.00,101.55
2891.00,101.55
2890.00,101.55
2889.00,101.55
2888.00,101.55
2887.00,101.55
2886.00,101.55
2885.00,101.55
2884.00,101.55
2883.00,101.55
2882.00,101.55
2881.00,101.55
2880.00,101.55
2879.00,101.55
2878.00,101.55
2877.00,101.55
2876.00,101.55
2875.00,101.55
2874.00,101.55
2873.00,101.55
2872.00,101.55
2871.00,101.55
2870.00,101.55
2869.00,101.55
2868.00,101.56
2867.00,101.56
2866.00,101.55
2865.00,101.55
2864.00,101.55
2863.00,101.54
2862.00,101.54
2861.00,101.54
2860.00,101.54
2859.00,101.53
2858.00,101.53
2857.00,101.53
2856.00,101.54
2855.00,101.54
2854.00,101.54
2853.00,101.54
2852.00,101.53
2851.00,101.52
2850.00,101.52
2849.00,101.52
2848.00,101.52
2847.00,101.52
2846.00,101.52
2845.00,101.52
2844.00,101.53
2843.00,101.53
2842.00,101.54
2841.00,101.55
2840.00,101.55
2839.00,101.56
2838.00,101.56
2837.00,101.55
2836.00,101.55
2835.00,101.54
2834.00,101.54
2833.00,101.54
2832.00,101.54
2831.00,101.53
2830.00,101.53
2829.00,101.53
2828.00,101.53
2827.00,101.54
2826.00,101.54
2825.00,101.55
2824.00,101.55
2823.00,101.54
2822.00,101.54
2821.00,101.54
2820.00,101.54
2819.00,101.54
2818.00,101.54
2817.00,101.54
2816.00,101.53
2815.00,101.53
2814.00,101.53
2813.00,101.54
2812.00,101.54
2811.00,101.54
2810.00,101.54
2809.00,101.53
2808.00,101.53
2807.00,101.53
2806.00,101.53
2805.00,101.53
2804.00,101.53
2803.00,101.53
2802.00,101.53
2801.00,101.53
2800.00,101.53
2799.00,101.54
2798.00,101.54
2797.00,101.54
2796.00,101.55
2795.00,101.55
2794.00,101.55
2793.00,101.55
2792.00,101.55
2791.00,101.55
2790.00,101.55
2789.00,101.55
2788.00,101.55
2787.00,101.55
2786.00,101.55
2785.00,101.54
2784.00,101.54
2783.00,101.54
2782.00,101.54
2781.00,101.53
2780.00,101.53
2779.00,101.53
2778.00,101.53
2777.00,101.53
2776.00,101.54
2775.00,101.54
2774.00,101.54
2773.00,101.55
2772.00,101.55
2771.00,101.55
2770.00,101.54
2769.00,101.54
2768.00,101.53
2767.00,101.53
2766.00,101.53
2765.00,101.53
2764.00,101.54
2763.00,101.54
2762.00,101.53
2761.00,101.53
2760.00,101.52
2759.00,101.51
2758.00,101.51
2757.00,101.51
2756.00,101.52
2755.00,101.52
2754.00,101.53
2753.00,101.53
2752.00,101.53
2751.00,101.53
2750.00,101.53
2749.00,101.53
2748.00,101.54
2747.00,101.54
2746.00,101.54
2745.00,101.54
2744.00,101.53
2743.00,101.52
2742.00,101.52
2741.00,101.52
2740.00,101.53
2739.00,101.53
2738.00,101.53
2737.00,101.53
2736.00,101.53
2735.00,101.53
2734.00,101.54
2733.00,101.54
2732.00,101.54
2731.00,101.54
2730.00,101.54
2729.00,101.54
2728.00,101.54
2727.00,101.53
2726.00,101.53
2725.00,101.53
2724.00,101.53
2723.00,101.53
2722.00,101.53
2721.00,101.53
2720.00,101.53
2719.00,101.53
2718.00,101.52
2717.00,101.53
2716.00,101.53
2715.00,101.53
2714.00,101.54
2713.00,101.54
2712.00,101.54
2711.00,101.53
2710.00,101.53
2709.00,101.52
2708.00,101.52
2707.00,101.52
2706.00,101.52
2705.00,101.52
2704.00,101.52
2703.00,101.52
2702.00,101.53
2701.00,101.53
2700.00,101.53
2699.00,101.52
2698.00,101.52
2697.00,101.52
2696.00,101.52
2695.00,101.52
2694.00,101.52
2693.00,101.52
2692.00,101.52
2691.00,101.52
2690.00,101.52
2689.00,101.53
2688.00,101.53
2687.00,101.53
2686.00,101.53
2685.00,101.53
2684.00,101.54
2683.00,101.54
2682.00,101.54
2681.00,101.55
2680.00,101.55
2679.00,101.54
2678.00,101.54
2677.00,101.53
2676.00,101.53
2675.00,101.53
2674.00,101.52
2673.00,101.52
2672.00,101.52
2671.00,101.51
2670.00,101.51
2669.00,101.51
2668.00,101.52
2667.00,101.51
2666.00,101.51
2665.00,101.52
2664.00,101.52
2663.00,101.52
2662.00,101.53
2661.00,101.53
2660.00,101.53
2659.00,101.53
2658.00,101.53
2657.00,101.53
2656.00,101.52
2655.00,101.51
2654.00,101.51
2653.00,101.51
2652.00,101.51
2651.00,101.50
2650.00,101.51
2649.00,101.52
2648.00,101.52
2647.00,101.52
2646.00,101.52
2645.00,101.52
2644.00,101.53
2643.00,101.52
2642.00,101.52
2641.00,101.52
2640.00,101.52
2639.00,101.52
2638.00,101.52
2637.00,101.52
2636.00,101.52
2635.00,101.52
2634.00,101.52
2633.00,101.51
2632.00,101.51
2631.00,101.51
2630.00,101.50
2629.00,101.51
2628.00,101.51
2627.00,101.51
2626.00,101.51
2625.00,101.52
2624.00,101.51
2623.00,101.50
2622.00,101.50
2621.00,101.50
2620.00,101.51
2619.00,101.51
2618.00,101.51
2617.00,101.51
2616.00,101.51
2615.00,101.51
2614.00,101.52
2613.00,101.52
2612.00,101.52
2611.00,101.51
2610.00,101.51
2609.00,101.50
2608.00,101.50
2607.00,101.50
2606.00,101.51
2605.00,101.51
2604.00,101.51
2603.00,101.50
2602.00,101.50
2601.00,101.50
2600.00,101.50
2599.00,101.49
2598.00,101.49
2597.00,101.50
2596.00,101.51
2595.00,101.51
2594.00,101.51
2593.00,101.51
2592.00,101.51
2591.00,101.50
2590.00,101.50
2589.00,101.51
2588.00,101.51
2587.00,101.50
2586.00,101.50
2585.00,101.50
2584.00,101.51
2583.00,101.51
2582.00,101.51
2581.00,101.52
2580.00,101.52
2579.00,101.51
2578.00,101.51
2577.00,101.52
2576.00,101.52
2575.00,101.52
2574.00,101.51
2573.00,101.51
2572.00,101.51
2571.00,101.50
2570.00,101.51
2569.00,101.51
2568.00,101.52
2567.00,101.52
2566.00,101.51
2565.00,101.51
2564.00,101.51
2563.00,101.50
2562.00,101.50
2561.00,101.50
2560.00,101.50
2559.00,101.49
2558.00,101.49
2557.00,101.49
2556.00,101.50
2555.00,101.50
2554.00,101.51
2553.00,101.51
2552.00,101.50
2551.00,101.49
2550.00,101.49
2549.00,101.50
2548.00,101.50
2547.00,101.50
2546.00,101.50
2545.00,101.50
2544.00,101.50
2543.00,101.50
2542.00,101.51
2541.00,101.52
2540.00,101.52
2539.00,101.51
2538.00,101.50
2537.00,101.50
2536.00,101.50
2535.00,101.50
2534.00,101.50
2533.00,101.51
2532.00,101.51
2531.00,101.50
2530.00,101.50
2529.00,101.50
2528.00,101.50
2527.00,101.50
2526.00,101.49
2525.00,101.50
2524.00,101.50
2523.00,101.50
2522.00,101.50
2521.00,101.51
2520.00,101.50
2519.00,101.50
2518.00,101.50
2517.00,101.50
2516.00,101.50
2515.00,101.49
2514.00,101.49
2513.00,101.49
2512.00,101.49
2511.00,101.48
2510.00,101.48
2509.00,101.49
2508.00,101.49
2507.00,101.49
2506.00,101.49
2505.00,101.50
2504.00,101.49
2503.00,101.49
2502.00,101.48
2501.00,101.48
2500.00,101.49
2499.00,101.50
2498.00,101.50
2497.00,101.50
2496.00,101.50
2495.00,101.49
2494.00,101.49
2493.00,101.49
2492.00,101.49
2491.00,101.48
2490.00,101.48
2489.00,101.49
2488.00,101.49
2487.00,101.48
2486.00,101.48
2485.00,101.48
2484.00,101.48
2483.00,101.47
2482.00,101.47
2481.00,101.47
2480.00,101.47
2479.00,101.47
2478.00,101.47
2477.00,101.47
2476.00,101.46
2475.00,101.46
2474.00,101.46
2473.00,101.46
2472.00,101.47
2471.00,101.47
2470.00,101.47
2469.00,101.46
2468.00,101.46
2467.00,101.45
2466.00,101.45
2465.00,101.45
2464.00,101.44
2463.00,101.43
2462.00,101.42
2461.00,101.42
2460.00,101.42
2459.00,101.41
2458.00,101.41
2457.00,101.41
2456.00,101.41
2455.00,101.40
2454.00,101.40
2453.00,101.40
2452.00,101.39
2451.00,101.38
2450.00,101.38
2449.00,101.37
2448.00,101.36
2447.00,101.34
2446.00,101.33
2445.00,101.32
2444.00,101.31
2443.00,101.30
2442.00,101.30
2441.00,101.30
2440.00,101.29
2439.00,101.28
2438.00,101.27
2437.00,101.26
2436.00,101.25
2435.00,101.23
2434.00,101.22
2433.00,101.21
2432.00,101.19
2431.00,101.17
2430.00,101.15
2429.00,101.13
2428.00,101.11
2427.00,101.07
2426.00,101.04
2425.00,101.01
2424.00,100.98
2423.00,100.94
2422.00,100.91
2421.00,100.88
2420.00,100.84
2419.00,100.79
2418.00,100.74
2417.00,100.70
2416.00,100.65
2415.00,100.59
2414.00,100.53
2413.00,100.47
2412.00,100.40
2411.00,100.32
2410.00,100.24
2409.00,100.16
2408.00,100.07
2407.00,99.96
2406.00,99.86
2405.00,99.74
2404.00,99.61
2403.00,99.46
2402.00,99.31
2401.00,99.14
2400.00,98.96
2399.00,98.74
2398.00,98.51
2397.00,98.24
2396.00,97.87
2395.00,97.31
2394.00,96.38
2393.00,94.78
2392.00,92.16
2391.00,88.34
2390.00,83.50
2389.00,78.18
2388.00,73.11
2387.00,41.64
2386.00,30.53
2385.00,20.83
2384.00,13.05
2383.00,7.39
2382.00,3.72
2381.00,1.65
2380.00,0.63
2379.00,0.22
2378.00,0.10
2377.00,0.08
2376.00,0.08
2375.00,0.08
2374.00,0.08
2373.00,0.08
2372.00,0.08
2371.00,0.08
2370.00,0.08
2369.00,0.09
2368.00,0.09
2367.00,0.09
2366.00,0.09
2365.00,0.09
2364.00,0.10
2363.00,0.09
2362.00,0.09
2361.00,0.09
2360.00,0.09
2359.00,0.08
2358.00,0.08
2357.00,0.09
2356.00,0.09
2355.00,0.09
2354.00,0.09
2353.00,0.09
2352.00,0.09
2351.00,0.09
2350.00,0.09
2349.00,0.09
2348.00,0.09
2347.00,0.09
2346.00,0.09
2345.00,0.10
2344.00,0.10
2343.00,0.09
2342.00,0.09
2341.00,0.10
2340.00,0.10
2339.00,0.10
2338.00,0.10
2337.00,0.10
2336.00,0.11
2335.00,0.10
2334.00,0.10
2333.00,0.10
2332.00,0.10
2331.00,0.10
2330.00,0.10
2329.00,0.10
2328.00,0.10
2327.00,0.09
2326.00,0.09
2325.00,0.09
2324.00,0.10
2323.00,0.09
2322.00,0.09
2321.00,0.09
2320.00,0.09
2319.00,0.09
2318.00,0.09
2317.00,0.09
2316.00,0.09
2315.00,0.09
2314.00,0.09
2313.00,0.09
2312.00,0.08
2311.00,0.08
2310.00,0.08
2309.00,0.10
2308.00,0.13
2307.00,0.20
2306.00,0.34
2305.00,0.50
2304.00,0.58
2303.00,0.66
2302.00,0.89
2301.00,1.34
2300.00,1.87
2299.00,2.37
2298.00,2.85
2297.00,3.37
2296.00,3.96
2295.00,4.76
2294.00,30.67
2293.00,33.60
2292.00,36.11
2291.00,37.21
2290.00,37.57
2289.00,38.67
2288.00,41.40
2287.00,45.56
2286.00,50.04
2285.00,53.32
2284.00,54.22
2283.00,52.71
2282.00,49.89
2281.00,47.30
2280.00,45.87
2279.00,45.58
2278.00,45.96
2277.00,46.63
2276.00,47.53
2275.00,48.56
2274.00,49.65
2273.00,50.77
2272.00,51.91
2271.00,52.90
2270.00,53.59
2269.00,54.01
2268.00,54.33
2267.00,54.72
2266.00,55.28
2265.00,56.16
2264.00,57.43
2263.00,59.03
2262.00,60.76
2261.00,62.43
2260.00,63.87
2259.00,64.98
2258.00,65.80
2257.00,66.51
2256.00,67.37
2255.00,68.51
2254.00,69.98
2253.00,71.70
2252.00,73.67
2251.00,75.81
2250.00,78.00
2249.00,80.06
2248.00,81.80
2247.00,83.14
2246.00,84.18
2245.00,85.13
2244.00,86.19
2243.00,87.37
2242.00,88.59
2241.00,89.80
2240.00,90.96
2239.00,92.08
2238.00,93.15
2237.00,94.16
2236.00,95.11
2235.00,95.96
2234.00,96.70
2233.00,97.33
2232.00,97.88
2231.00,98.36
2230.00,98.80
2229.00,99.19
2228.00,99.54
2227.00,99.85
2226.00,100.11
2225.00,100.33
2224.00,100.52
2223.00,100.68
2222.00,100.79
2221.00,100.88
2220.00,100.95
2219.00,101.01
2218.00,101.06
2217.00,101.12
2216.00,101.17
2215.00,101.22
2214.00,101.26
2213.00,101.28
2212.00,101.29
2211.00,101.31
2210.00,101.32
2209.00,101.33
2208.00,101.35
2207.00,101.36
2206.00,101.38
2205.00,101.39
2204.00,101.41
2203.00,101.41
2202.00,101.42
2201.00,101.42
2200.00,101.42
2199.00,101.43
2198.00,101.43
2197.00,101.43
2196.00,101.44
2195.00,101.45
2194.00,101.45
2193.00,101.46
2192.00,101.46
2191.00,101.46
2190.00,101.45
2189.00,101.45
2188.00,101.45
2187.00,101.44
2186.00,101.44
2185.00,101.44
2184.00,101.45
2183.00,101.45
2182.00,101.45
2181.00,101.46
2180.00,101.46
2179.00,101.46
2178.00,101.46
2177.00,101.46
2176.00,101.47
2175.00,101.47
2174.00,101.47
2173.00,101.47
2172.00,101.47
2171.00,101.46
2170.00,101.46
2169.00,101.45
2168.00,101.45
2167.00,101.45
2166.00,101.45
2165.00,101.45
2164.00,101.46
2163.00,101.46
2162.00,101.46
2161.00,101.46
2160.00,101.46
2159.00,101.46
2158.00,101.46
2157.00,101.46
2156.00,101.45
2155.00,101.45
2154.00,101.45
2153.00,101.46
2152.00,101.46
2151.00,101.46
2150.00,101.46
2149.00,101.46
2148.00,101.45
2147.00,101.45
2146.00,101.45
2145.00,101.45
2144.00,101.45
2143.00,101.45
2142.00,101.45
2141.00,101.46
2140.00,101.46
2139.00,101.45
2138.00,101.45
2137.00,101.45
2136.00,101.45
2135.00,101.44
2134.00,101.43
2133.00,101.39
2132.00,101.29
2131.00,101.17
2130.00,101.11
2129.00,101.15
2128.00,101.26
2127.00,101.35
2126.00,101.40
2125.00,101.41
2124.00,101.40
2123.00,101.39
2122.00,101.37
2121.00,101.37
2120.00,101.37
2119.00,101.36
2118.00,101.37
2117.00,101.37
2116.00,101.35
2115.00,101.33
2114.00,101.32
2113.00,101.33
2112.00,101.33
2111.00,101.32
2110.00,101.32
2109.00,101.31
2108.00,101.31
2107.00,101.32
2106.00,101.35
2105.00,101.37
2104.00,101.37
2103.00,101.36
2102.00,101.35
2101.00,101.35
2100.00,101.35
2099.00,101.35
2098.00,101.33
2097.00,101.24
2096.00,101.05
2095.00,100.84
2094.00,100.78
2093.00,100.90
2092.00,101.09
2091.00,101.23
2090.00,101.29
2089.00,101.29
2088.00,101.25
2087.00,101.20
2086.00,101.17
2085.00,101.15
2084.00,101.12
2083.00,101.05
2082.00,100.81
2081.00,100.07
2080.00,98.67
2079.00,97.15
2078.00,96.49
2077.00,97.22
2076.00,98.83
2075.00,100.26
2074.00,100.92
2073.00,100.98
2072.00,100.88
2071.00,100.77
2070.00,100.64
2069.00,100.50
2068.00,100.39
2067.00,100.30
2066.00,100.20
2065.00,100.10
2064.00,100.05
2063.00,100.03
2062.00,99.99
2061.00,99.96
2060.00,99.98
2059.00,100.01
2058.00,100.04
2057.00,100.07
2056.00,100.14
2055.00,100.22
2054.00,100.28
2053.00,100.34
2052.00,100.42
2051.00,100.50
2050.00,100.57
2049.00,100.65
2048.00,100.75
2047.00,100.84
2046.00,100.91
2045.00,100.97
2044.00,101.04
2043.00,101.11
2042.00,101.15
2041.00,101.18
2040.00,101.20
2039.00,101.21
2038.00,101.22
2037.00,101.25
2036.00,101.30
2035.00,101.35
2034.00,101.36
2033.00,101.36
2032.00,101.37
2031.00,101.38
2030.00,101.38
2029.00,101.38
2028.00,101.39
2027.00,101.39
2026.00,101.39
2025.00,101.39
2024.00,101.39
2023.00,101.40
2022.00,101.39
2021.00,101.38
2020.00,101.39
2019.00,101.40
2018.00,101.40
2017.00,101.40
2016.00,101.40
2015.00,101.40
2014.00,101.39
2013.00,101.39
2012.00,101.40
2011.00,101.41
2010.00,101.41
2009.00,101.40
2008.00,101.41
2007.00,101.41
2006.00,101.41
2005.00,101.41
2004.00,101.41
2003.00,101.41
2002.00,101.40
2001.00,101.40
2000.00,101.42
1999.00,101.43
1998.00,101.43
1997.00,101.42
1996.00,101.43
1995.00,101.43
1994.00,101.43
1993.00,101.43
1992.00,101.43
1991.00,101.42
1990.00,101.41
1989.00,101.39
1988.00,101.39
1987.00,101.39
1986.00,101.39
1985.00,101.39
1984.00,101.40
1983.00,101.41
1982.00,101.41
1981.00,101.40
1980.00,101.40
1979.00,101.40
1978.00,101.40
1977.00,101.39
1976.00,101.39
1975.00,101.40
1974.00,101.40
1973.00,101.40
1972.00,101.41
1971.00,101.41
1970.00,101.41
1969.00,101.41
1968.00,101.40
1967.00,101.40
1966.00,101.38
1965.00,101.37
1964.00,101.37
1963.00,101.38
1962.00,101.38
1961.00,101.38
1960.00,101.39
1959.00,101.39
1958.00,101.39
1957.00,101.39
1956.00,101.40
1955.00,101.40
1954.00,101.40
1953.00,101.40
1952.00,101.39
1951.00,101.39
1950.00,101.39
1949.00,101.40
1948.00,101.40
1947.00,101.41
1946.00,101.42
1945.00,101.43
1944.00,101.43
1943.00,101.42
1942.00,101.40
1941.00,101.38
1940.00,101.37
1939.00,101.37
1938.00,101.35
1937.00,101.29
1936.00,101.16
1935.00,101.00
1934.00,100.89
1933.00,100.92
1932.00,101.07
1931.00,101.23
1930.00,101.33
1929.00,101.35
1928.00,101.35
1927.00,101.33
1926.00,101.31
1925.00,101.31
1924.00,101.30
1923.00,101.28
1922.00,101.24
1921.00,101.21
1920.00,101.20
1919.00,101.18
1918.00,101.16
1917.00,101.14
1916.00,101.13
1915.00,101.12
1914.00,101.12
1913.00,101.13
1912.00,101.16
1911.00,101.17
1910.00,101.17
1909.00,101.18
1908.00,101.18
1907.00,101.18
1906.00,101.19
1905.00,101.20
1904.00,101.23
1903.00,101.24
1902.00,101.25
1901.00,101.27
1900.00,101.29
1899.00,101.30
1898.00,101.31
1897.00,101.33
1896.00,101.35
1895.00,101.35
1894.00,101.34
1893.00,101.36
1892.00,101.39
1891.00,101.41
1890.00,101.40
1889.00,101.39
1888.00,101.38
1887.00,101.36
1886.00,101.35
1885.00,101.36
1884.00,101.38
1883.00,101.37
1882.00,101.36
1881.00,101.36
1880.00,101.37
1879.00,101.37
1878.00,101.37
1877.00,101.37
1876.00,101.38
1875.00,101.38
1874.00,101.37
1873.00,101.38
1872.00,101.41
1871.00,101.44
1870.00,101.45
1869.00,101.45
1868.00,101.43
1867.00,101.38
1866.00,101.34
1865.00,101.34
1864.00,101.36
1863.00,101.36
1862.00,101.35
1861.00,101.35
1860.00,101.37
1859.00,101.37
1858.00,101.35
1857.00,101.36
1856.00,101.38
1855.00,101.38
1854.00,101.37
1853.00,101.37
1852.00,101.37
1851.00,101.37
1850.00,101.36
1849.00,101.36
1848.00,101.39
1847.00,101.41
1846.00,101.44
1845.00,101.46
1844.00,101.44
1843.00,101.39
1842.00,101.34
1841.00,101.33
1840.00,101.34
1839.00,101.36
1838.00,101.36
1837.00,101.36
1836.00,101.36
1835.00,101.35
1834.00,101.35
1833.00,101.38
1832.00,101.42
1831.00,101.46
1830.00,101.47
1829.00,101.45
1828.00,101.41
1827.00,101.38
1826.00,101.35
1825.00,101.35
1824.00,101.35
1823.00,101.35
1822.00,101.36
1821.00,101.37
1820.00,101.39
1819.00,101.39
1818.00,101.36
1817.00,101.35
1816.00,101.36
1815.00,101.37
1814.00,101.36
1813.00,101.36
1812.00,101.38
1811.00,101.38
1810.00,101.35
1809.00,101.34
1808.00,101.35
1807.00,101.35
1806.00,101.34
1805.00,101.34
1804.00,101.36
1803.00,101.35
1802.00,101.32
1801.00,101.32
1800.00,101.34
1799.00,101.35
1798.00,101.33
1797.00,101.34
1796.00,101.36
1795.00,101.35
1794.00,101.31
1793.00,101.28
1792.00,101.29
1791.00,101.30
1790.00,101.30
1789.00,101.30
1788.00,101.32
1787.00,101.31
1786.00,101.29
1785.00,101.30
1784.00,101.33
1783.00,101.35
1782.00,101.36
1781.00,101.35
1780.00,101.34
1779.00,101.33
1778.00,101.33
1777.00,101.34
1776.00,101.37
1775.00,101.42
1774.00,101.45
1773.00,101.45
1772.00,101.42
1771.00,101.36
1770.00,101.27
1769.00,101.20
1768.00,101.20
1767.00,101.24
1766.00,101.27
1765.00,101.28
1764.00,101.30
1763.00,101.33
1762.00,101.34
1761.00,101.33
1760.00,101.33
1759.00,101.34
1758.00,101.34
1757.00,101.31
1756.00,101.29
1755.00,101.29
1754.00,101.26
1753.00,101.20
1752.00,101.17
1751.00,101.21
1750.00,101.27
1749.00,101.30
1748.00,101.30
1747.00,101.32
1746.00,101.33
1745.00,101.32
1744.00,101.31
1743.00,101.31
1742.00,101.30
1741.00,101.29
1740.00,101.32
1739.00,101.35
1738.00,101.35
1737.00,101.33
1736.00,101.30
1735.00,101.29
1734.00,101.32
1733.00,101.36
1732.00,101.36
1731.00,101.32
1730.00,101.30
1729.00,101.31
1728.00,101.32
1727.00,101.33
1726.00,101.34
1725.00,101.35
1724.00,101.36
1723.00,101.34
1722.00,101.32
1721.00,101.37
1720.00,101.48
1719.00,101.57
1718.00,101.57
1717.00,101.54
1716.00,101.51
1715.00,101.41
1714.00,101.31
1713.00,101.30
1712.00,101.34
1711.00,101.35
1710.00,101.33
1709.00,101.34
1708.00,101.39
1707.00,101.40
1706.00,101.37
1705.00,101.37
1704.00,101.38
1703.00,101.36
1702.00,101.30
1701.00,101.28
1700.00,101.36
1699.00,101.45
1698.00,101.56
1697.00,101.69
1696.00,101.78
1695.00,101.72
1694.00,101.53
1693.00,101.38
1692.00,101.33
1691.00,101.34
1690.00,101.32
1689.00,101.30
1688.00,101.31
1687.00,101.38
1686.00,101.48
1685.00,101.55
1684.00,101.54
1683.00,101.46
1682.00,101.38
1681.00,101.32
1680.00,101.30
1679.00,101.31
1678.00,101.36
1677.00,101.38
1676.00,101.37
1675.00,101.38
1674.00,101.40
1673.00,101.38
1672.00,101.35
1671.00,101.35
1670.00,101.37
1669.00,101.38
1668.00,101.35
1667.00,101.33
1666.00,101.34
1665.00,101.37
1664.00,101.38
1663.00,101.39
1662.00,101.41
1661.00,101.38
1660.00,101.32
1659.00,101.30
1658.00,101.31
1657.00,101.30
1656.00,101.29
1655.00,101.30
1654.00,101.33
1653.00,101.42
1652.00,101.51
1651.00,101.49
1650.00,101.39
1649.00,101.33
1648.00,101.29
1647.00,101.26
1646.00,101.24
1645.00,101.26
1644.00,101.29
1643.00,101.29
1642.00,101.29
1641.00,101.28
1640.00,101.29
1639.00,101.30
1638.00,101.28
1637.00,101.25
1636.00,101.26
1635.00,101.32
1634.00,101.34
1633.00,101.33
1632.00,101.31
1631.00,101.31
1630.00,101.33
1629.00,101.36
1628.00,101.35
1627.00,101.33
1626.00,101.32
1625.00,101.31
1624.00,101.31
1623.00,101.30
1622.00,101.30
1621.00,101.27
1620.00,101.22
1619.00,101.17
1618.00,101.15
1617.00,101.19
1616.00,101.24
1615.00,101.27
1614.00,101.28
1613.00,101.27
1612.00,101.26
1611.00,101.26
1610.00,101.29
1609.00,101.31
1608.00,101.29
1607.00,101.28
1606.00,101.30
1605.00,101.30
1604.00,101.28
1603.00,101.28
1602.00,101.29
1601.00,101.30
1600.00,101.28
1599.00,101.28
1598.00,101.30
1597.00,101.30
1596.00,101.29
1595.00,101.28
1594.00,101.30
1593.00,101.31
1592.00,101.30
1591.00,101.29
1590.00,101.30
1589.00,101.30
1588.00,101.29
1587.00,101.29
1586.00,101.30
1585.00,101.31
1584.00,101.28
1583.00,101.27
1582.00,101.29
1581.00,101.30
1580.00,101.28
1579.00,101.28
1578.00,101.27
1577.00,101.23
1576.00,101.19
1575.00,101.21
1574.00,101.25
1573.00,101.27
1572.00,101.28
1571.00,101.30
1570.00,101.33
1569.00,101.31
1568.00,101.25
1567.00,101.24
1566.00,101.29
1565.00,101.32
1564.00,101.30
1563.00,101.32
1562.00,101.34
1561.00,101.27
1560.00,101.11
1559.00,101.08
1558.00,101.19
1557.00,101.23
1556.00,101.18
1555.00,101.13
1554.00,101.14
1553.00,101.16
1552.00,101.18
1551.00,101.20
1550.00,101.22
1549.00,101.22
1548.00,101.19
1547.00,101.18
1546.00,101.22
1545.00,101.27
1544.00,101.31
1543.00,101.30
1542.00,101.24
1541.00,101.14
1540.00,101.07
1539.00,101.10
1538.00,101.16
1537.00,101.20
1536.00,101.22
1535.00,101.26
1534.00,101.31
1533.00,101.33
1532.00,101.32
1531.00,101.31
1530.00,101.31
1529.00,101.33
1528.00,101.35
1527.00,101.34
1526.00,101.32
1525.00,101.33
1524.00,101.36
1523.00,101.41
1522.00,101.43
1521.00,101.45
1520.00,101.44
1519.00,101.40
1518.00,101.35
1517.00,101.32
1516.00,101.30
1515.00,101.27
1514.00,101.25
1513.00,101.23
1512.00,101.26
1511.00,101.28
1510.00,101.26
1509.00,101.21
1508.00,101.15
1507.00,101.10
1506.00,101.11
1505.00,101.19
1504.00,101.26
1503.00,101.30
1502.00,101.32
1501.00,101.35
1500.00,101.40
1499.00,101.45
1498.00,101.44
1497.00,101.42
1496.00,101.43
1495.00,101.41
1494.00,101.35
1493.00,101.31
1492.00,101.32
1491.00,101.32
1490.00,101.30
1489.00,101.30
1488.00,101.33
1487.00,101.34
1486.00,101.32
1485.00,101.34
1484.00,101.36
1483.00,101.36
1482.00,101.35
1481.00,101.35
1480.00,101.36
1479.00,101.35
1478.00,101.34
1477.00,101.35
1476.00,101.36
1475.00,101.33
1474.00,101.28
1473.00,101.25
1472.00,101.26
1471.00,101.29
1470.00,101.30
1469.00,101.32
1468.00,101.35
1467.00,101.37
1466.00,101.35
1465.00,101.33
1464.00,101.32
1463.00,101.33
1462.00,101.34
1461.00,101.37
1460.00,101.43
1459.00,101.49
1458.00,101.48
1457.00,101.44
1456.00,101.42
1455.00,101.40
1454.00,101.37
1453.00,101.33
1452.00,101.34
1451.00,101.37
1450.00,101.38
1449.00,101.37
1448.00,101.37
1447.00,101.39
1446.00,101.40
1445.00,101.38
1444.00,101.38
1443.00,101.41
1442.00,101.43
1441.00,101.41
1440.00,101.40
1439.00,101.42
1438.00,101.41
1437.00,101.37
1436.00,101.36
1435.00,101.39
1434.00,101.39
1433.00,101.37
1432.00,101.38
1431.00,101.42
1430.00,101.43
1429.00,101.40
1428.00,101.38
1427.00,101.39
1426.00,101.40
1425.00,101.37
1424.00,101.34
1423.00,101.37
1422.00,101.42
1421.00,101.44
1420.00,101.45
1419.00,101.46
1418.00,101.42
1417.00,101.34
1416.00,101.31
1415.00,101.35
1414.00,101.40
1413.00,101.39
1412.00,101.37
1411.00,101.40
1410.00,101.42
1409.00,101.41
1408.00,101.40
1407.00,101.42
1406.00,101.45
1405.00,101.43
1404.00,101.42
1403.00,101.43
1402.00,101.45
1401.00,101.43
1400.00,101.40
1399.00,101.39
1398.00,101.40
1397.00,101.40
1396.00,101.41
1395.00,101.44
1394.00,101.46
1393.00,101.43
1392.00,101.41
1391.00,101.42
1390.00,101.45
1389.00,101.46
1388.00,101.45
1387.00,101.46
1386.00,101.47
1385.00,101.47
1384.00,101.47
1383.00,101.48
1382.00,101.48
1381.00,101.47
1380.00,101.46
1379.00,101.47
1378.00,101.48
1377.00,101.49
1376.00,101.49
1375.00,101.49
1374.00,101.48
1373.00,101.47
1372.00,101.45
1371.00,101.44
1370.00,101.46
1369.00,101.47
1368.00,101.47
1367.00,101.48
1366.00,101.50
1365.00,101.49
1364.00,101.47
1363.00,101.45
1362.00,101.43
1361.00,101.42
1360.00,101.43
1359.00,101.44
1358.00,101.45
1357.00,101.45
1356.00,101.44
1355.00,101.45
1354.00,101.46
1353.00,101.47
1352.00,101.47
1351.00,101.47
1350.00,101.48
1349.00,101.48
1348.00,101.47
1347.00,101.46
1346.00,101.47
1345.00,101.48
1344.00,101.48
1343.00,101.47
1342.00,101.47
1341.00,101.44
1340.00,101.42
1339.00,101.41
1338.00,101.42
1337.00,101.43
1336.00,101.44
1335.00,101.46
1334.00,101.48
1333.00,101.48
1332.00,101.48
1331.00,101.48
1330.00,101.49
1329.00,101.48
1328.00,101.48
1327.00,101.48
1326.00,101.49
1325.00,101.49
1324.00,101.48
1323.00,101.49
1322.00,101.50
1321.00,101.49
1320.00,101.48
1319.00,101.47
1318.00,101.47
1317.00,101.46
1316.00,101.45
1315.00,101.46
1314.00,101.46
1313.00,101.46
1312.00,101.46
1311.00,101.47
1310.00,101.48
1309.00,101.48
1308.00,101.47
1307.00,101.47
1306.00,101.48
1305.00,101.48
1304.00,101.48
1303.00,101.49
1302.00,101.49
1301.00,101.49
1300.00,101.48
1299.00,101.48
1298.00,101.49
1297.00,101.49
1296.00,101.49
1295.00,101.50
1294.00,101.50
1293.00,101.50
1292.00,101.50
1291.00,101.50
1290.00,101.50
1289.00,101.49
1288.00,101.48
1287.00,101.48
1286.00,101.49
1285.00,101.49
1284.00,101.49
1283.00,101.49
1282.00,101.50
1281.00,101.49
1280.00,101.49
1279.00,101.50
1278.00,101.51
1277.00,101.51
1276.00,101.51
1275.00,101.51
1274.00,101.51
1273.00,101.50
1272.00,101.49
1271.00,101.49
1270.00,101.50
1269.00,101.50
1268.00,101.50
1267.00,101.51
1266.00,101.51
1265.00,101.50
1264.00,101.50
1263.00,101.51
1262.00,101.52
1261.00,101.52
1260.00,101.51
1259.00,101.51
1258.00,101.53
1257.00,101.54
1256.00,101.54
1255.00,101.55
1254.00,101.55
1253.00,101.54
1252.00,101.53
1251.00,101.52
1250.00,101.52
1249.00,101.52
1248.00,101.52
1247.00,101.54
1246.00,101.55
1245.00,101.55
1244.00,101.54
1243.00,101.54
1242.00,101.55
1241.00,101.55
1240.00,101.55
1239.00,101.56
1238.00,101.56
1237.00,101.55
1236.00,101.54
1235.00,101.54
1234.00,101.55
1233.00,101.55
1232.00,101.55
1231.00,101.56
1230.00,101.57
1229.00,101.55
1228.00,101.54
1227.00,101.53
1226.00,101.53
1225.00,101.53
1224.00,101.53
1223.00,101.54
1222.00,101.55
1221.00,101.54
1220.00,101.53
1219.00,101.53
1218.00,101.53
1217.00,101.53
1216.00,101.53
1215.00,101.53
1214.00,101.55
1213.00,101.55
1212.00,101.56
1211.00,101.56
1210.00,101.56
1209.00,101.56
1208.00,101.55
1207.00,101.56
1206.00,101.57
1205.00,101.56
1204.00,101.55
1203.00,101.54
1202.00,101.55
1201.00,101.55
1200.00,101.55
1199.00,101.56
1198.00,101.56
1197.00,101.56
1196.00,101.56
1195.00,101.56
1194.00,101.56
1193.00,101.54
1192.00,101.53
1191.00,101.54
1190.00,101.56
1189.00,101.56
1188.00,101.57
1187.00,101.58
1186.00,101.58
1185.00,101.57
1184.00,101.56
1183.00,101.56
1182.00,101.56
1181.00,101.56
1180.00,101.56
1179.00,101.57
1178.00,101.57
1177.00,101.56
1176.00,101.54
1175.00,101.54
1174.00,101.55
1173.00,101.54
1172.00,101.53
1171.00,101.53
1170.00,101.53
1169.00,101.53
1168.00,101.52
1167.00,101.53
1166.00,101.55
1165.00,101.55
1164.00,101.55
1163.00,101.56
1162.00,101.58
1161.00,101.58
1160.00,101.57
1159.00,101.58
1158.00,101.58
1157.00,101.57
1156.00,101.56
1155.00,101.56
1154.00,101.58
1153.00,101.58
1152.00,101.57
1151.00,101.58
1150.00,101.58
1149.00,101.57
1148.00,101.57
1147.00,101.57
1146.00,101.59
1145.00,101.59
1144.00,101.58
1143.00,101.60
1142.00,101.61
1141.00,101.60
1140.00,101.59
1139.00,101.58
1138.00,101.58
1137.00,101.58
1136.00,101.58
1135.00,101.59
1134.00,101.60
1133.00,101.58
1132.00,101.56
1131.00,101.56
1130.00,101.56
1129.00,101.55
1128.00,101.55
1127.00,101.57
1126.00,101.59
1125.00,101.58
1124.00,101.56
1123.00,101.56
1122.00,101.57
1121.00,101.58
1120.00,101.57
1119.00,101.57
1118.00,101.57
1117.00,101.56
1116.00,101.56
1115.00,101.57
1114.00,101.59
1113.00,101.59
1112.00,101.58
1111.00,101.58
1110.00,101.59
1109.00,101.58
1108.00,101.55
1107.00,101.53
1106.00,101.51
1105.00,101.50
1104.00,101.50
1103.00,101.52
1102.00,101.54
1101.00,101.53
1100.00,101.52
1099.00,101.54
1098.00,101.58
1097.00,101.61
1096.00,101.62
1095.00,101.64
1094.00,101.62
1093.00,101.58
1092.00,101.52
1091.00,101.47
1090.00,101.44
1089.00,101.41
1088.00,101.39
1087.00,101.38
1086.00,101.38
1085.00,101.35
1084.00,101.31
1083.00,101.29
1082.00,101.27
1081.00,101.25
1080.00,101.23
1079.00,101.23
1078.00,101.24
1077.00,101.23
1076.00,101.23
1075.00,101.25
1074.00,101.27
1073.00,101.26
1072.00,101.26
1071.00,101.30
1070.00,101.35
1069.00,101.39
1068.00,101.44
1067.00,101.51
1066.00,101.57
1065.00,101.58
1064.00,101.56
1063.00,101.57
1062.00,101.57
1061.00,101.55
1060.00,101.50
1059.00,101.46
1058.00,101.43
1057.00,101.38
1056.00,101.33
1055.00,101.31
1054.00,101.29
1053.00,101.25
1052.00,101.23
1051.00,101.24
1050.00,101.25
1049.00,101.22
1048.00,101.20
1047.00,101.24
1046.00,101.29
1045.00,101.30
1044.00,101.31
1043.00,101.34
1042.00,101.40
1041.00,101.44
1040.00,101.47
1039.00,101.52
1038.00,101.56
1037.00,101.55
1036.00,101.53
1035.00,101.54
1034.00,101.54
1033.00,101.50
1032.00,101.46
1031.00,101.47
1030.00,101.50
1029.00,101.50
1028.00,101.47
1027.00,101.48
1026.00,101.50
1025.00,101.51
1024.00,101.51
1023.00,101.55
1022.00,101.58
1021.00,101.55
1020.00,101.50
1019.00,101.47
1018.00,101.46
1017.00,101.44
1016.00,101.42
1015.00,101.46
1014.00,101.50
1013.00,101.49
1012.00,101.49
1011.00,101.53
1010.00,101.57
1009.00,101.54
1008.00,101.47
1007.00,101.44
1006.00,101.45
1005.00,101.45
1004.00,101.44
1003.00,101.46
1002.00,101.47
1001.00,101.46
1000.00,101.44
999.00,101.43
998.00,101.38
997.00,101.28
996.00,101.23
995.00,101.32
994.00,101.46
993.00,101.52
992.00,101.52
991.00,101.53
990.00,101.54
989.00,101.52
988.00,101.48
987.00,101.49
986.00,101.49
985.00,101.40
984.00,101.28
983.00,101.25
982.00,101.23
981.00,101.17
980.00,101.13
979.00,101.21
978.00,101.34
977.00,101.41
976.00,101.43
975.00,101.49
974.00,101.58
973.00,101.60
972.00,101.55
971.00,101.51
970.00,101.47
969.00,101.40
968.00,101.38
967.00,101.46
966.00,101.50
965.00,101.42
964.00,101.39
963.00,101.56
962.00,101.78
961.00,101.80
960.00,101.69
959.00,101.67
958.00,101.76
957.00,101.83
956.00,101.84
955.00,101.84
954.00,101.74
953.00,101.49
952.00,101.31
951.00,101.39
950.00,101.51
949.00,101.39
948.00,101.14
947.00,101.08
946.00,101.22
945.00,101.37
944.00,101.59
943.00,101.96
942.00,102.17
941.00,101.96
940.00,101.56
939.00,101.42
938.00,101.40
937.00,101.13
936.00,100.76
935.00,100.74
934.00,101.01
933.00,101.16
932.00,101.15
931.00,101.27
930.00,101.43
929.00,101.43
928.00,101.50
927.00,101.88
926.00,102.16
925.00,101.99
924.00,101.89
923.00,102.44
922.00,103.08
921.00,102.95
920.00,102.43
919.00,102.48
918.00,102.83
917.00,102.63
916.00,102.02
915.00,101.88
914.00,102.14
913.00,102.13
912.00,102.44
911.00,103.71
910.00,104.73
909.00,104.13
908.00,102.82
907.00,103.14
906.00,105.60
905.00,108.59
904.00,111.15
903.00,112.84
902.00,112.84
901.00,110.75
900.00,108.14
899.00,107.09
898.00,107.56
897.00,108.03
896.00,109.28
895.00,112.26
894.00,114.78
893.00,115.34
892.00,116.44
891.00,122.12
890.00,128.65
889.00,128.30
888.00,122.40
887.00,117.81
886.00,115.68
885.00,111.15
884.00,103.68
883.00,95.90
882.00,87.86
881.00,76.02
880.00,69.42
879.00,74.87
878.00,89.13
877.00,102.67
876.00,118.99
875.00,142.08
874.00,143.64
873.00,122.70
872.00,99.66
871.00,108.36
870.00,145.28
869.00,170.75
868.00,167.76
867.00,157.69
866.00,145.59
865.00,109.55
864.00,97.96
863.00,111.35
862.00,124.25
861.00,129.62
860.00,121.69
859.00,143.92
858.00,211.28
857.00,145.52
856.00,95.49
855.00,127.87
854.00,196.74
853.00,155.57
852.00,96.85
851.00,111.06
850.00,221.40
849.00,82.57
848.00,10.68
847.00,43.98
846.00,136.87
845.00,67.18
844.00,73.59
843.00,84.34
842.00,86.82
841.00,33.03
840.00,46.08
839.00,31.71
838.00,40.79
837.00,61.70
836.00,107.36
835.00,169.36
834.00,53.77
833.00,253.92
832.00,210.29
831.00,148.16
830.00,87.06
829.00,127.82
828.00,144.19
827.00,113.57
826.00,46.23
825.00,30.39
824.00,33.41
823.00,44.24
822.00,54.31
821.00,47.47
820.00,116.03
819.00,124.14
818.00,117.76
817.00,112.04
816.00,100.41
815.00,78.09
814.00,64.26
813.00,115.63
812.00,154.30
811.00,196.55
810.00,194.77
809.00,151.59
808.00,108.14
807.00,66.42
806.00,25.05
805.00,25.36
804.00,55.84
803.00,55.47
802.00,55.20
801.00,68.63
800.00,106.15
799.00,167.83
798.00,398.65
797.00,69.86
796.00,72.72
795.00,33.36
794.00,181.87
793.00,38.33
792.00,49.87
791.00,26.18
790.00,64.47
789.00,61.29
788.00,59.03
787.00,29.46
786.00,51.71
785.00,32.72
784.00,24.94
783.00,25.94
782.00,71.72
781.00,28.25
780.00,16.30
779.00,16.87
778.00,311.18
777.00,36.50
776.00,83.21
775.00,69.45
774.00,29.86
773.00,54.71
772.00,76.25
771.00,67.57
770.00,77.70
769.00,43.61
768.00,51.09
767.00,31.92
766.00,27.16
765.00,46.32
764.00,89.74
763.00,145.97
762.00,617.02
761.00,522.52
760.00,298.33
759.00,205.67
758.00,16.63
757.00,80.28
756.00,109.66
755.00,112.67
754.00,94.28
753.00,51.38
752.00,45.34
751.00,23.84
750.00,37.31
749.00,22.07
748.00,28.96
747.00,24.89
746.00,123.82
745.00,21.21
744.00,41.98
743.00,33.27
742.00,33.92
741.00,51.83
740.00,67.94
739.00,62.86
738.00,68.08
737.00,39.67
736.00,43.67
735.00,21.39
734.00,32.06
733.00,43.55
732.00,53.38
731.00,40.93
730.00,61.13
729.00,155.27
728.00,190.19
727.00,198.32
726.00,205.75
725.00,238.37
724.00,262.41
723.00,415.64
722.00,236.68
721.00,104.65
720.00,83.33
719.00,35.84
718.00,43.68
717.00,54.51
716.00,87.21
715.00,107.14
714.00,96.55
713.00,67.90
712.00,78.83
711.00,42.02
710.00,94.43
709.00,26.29
708.00,48.95
707.00,34.29
706.00,14.41
705.00,52.28
704.00,90.89
703.00,76.72
702.00,3.88
701.00,119.21
700.00,164.85
699.00,95.68
698.00,109.84
697.00,161.63
696.00,227.84
695.00,248.18
694.00,215.72
693.00,224.64
692.00,215.41
691.00,88.39
690.00,31.15
689.00,25.42
688.00,41.48
687.00,60.61
686.00,120.75
685.00,131.74
684.00,125.53
683.00,94.61
682.00,57.51
681.00,38.76
680.00,30.33
679.00,65.23
678.00,678.49
677.00,104.24
676.00,63.19
675.00,33.79
674.00,45.50
673.00,14.67
672.00,35.47
671.00,39.99
670.00,53.36
669.00,137.63
668.00,130.19
667.00,95.49
666.00,80.43
665.00,69.76
664.00,62.92
663.00,25.63
662.00,34.57
661.00,30.95
660.00,82.60
659.00,87.97
658.00,85.30
657.00,86.52
656.00,81.21
655.00,37.21
654.00,21.48
653.00,18.93
652.00,24.95
651.00,38.67
650.00,263.04
649.00,226.03
648.00,274.62
647.00,524.96
646.00,271.96
645.00,208.16
644.00,438.83
643.00,487.25
642.00,218.48
641.00,204.70
640.00,204.37
639.00,100.51
638.00,44.74
637.00,52.33
636.00,88.88
635.00,62.37
634.00,179.01
633.00,292.53
632.00,308.07
631.00,414.70
630.00,109.78
629.00,226.53
628.00,212.92
627.00,140.76
626.00,65.71
625.00,79.56
624.00,88.27
623.00,57.60
622.00,127.89
621.00,82.52
620.00,88.14
619.00,23.97
618.00,257.70
617.00,100.52
616.00,213.61
615.00,232.85
614.00,269.64
613.00,162.70
612.00,124.50
611.00,202.05
610.00,820.56
609.00,98.64
608.00,32.31
607.00,79.13
606.00,136.39
605.00,38.10
604.00,41.83
603.00,47.94
602.00,54.14
601.00,21.95
600.00,11.85
599.00,31.10
598.00,131.19
597.00,46.75
596.00,63.83
595.00,42.68
594.00,17.35
593.00,19.47
592.00,42.08
591.00,43.38
590.00,54.42
589.00,63.05
588.00,76.19
587.00,72.71
586.00,95.63
585.00,88.25
584.00,83.78
583.00,51.93
582.00,26.51
581.00,28.27
580.00,33.68
579.00,25.31
578.00,48.20
577.00,29.87
576.00,48.41
575.00,28.94
574.00,225.36
573.00,147.31
572.00,67.90
571.00,151.45
570.00,173.42
569.00,86.96
568.00,116.20
567.00,39.63
566.00,73.79
565.00,48.21
564.00,48.79
563.00,40.74
562.00,71.02
561.00,30.29
560.00,16.29
559.00,45.34
558.00,231.86
557.00,82.16
556.00,22.38
555.00,63.80
554.00,84.60
553.00,35.53
552.00,13.13
551.00,9.24
550.00,51.99
549.00,16.81
548.00,48.16
547.00,166.72
546.00,617.16
545.00,284.51
544.00,168.55
543.00,95.82
542.00,47.45
541.00,37.97
540.00,43.01
539.00,52.03
538.00,66.99
537.00,25.97
536.00,100.56
535.00,119.78
534.00,63.34
533.00,73.22
532.00,82.48
531.00,42.47
530.00,20.83
529.00,53.26
528.00,109.11
527.00,92.12
526.00,62.75
525.00,20.05
524.00,6.60
523.00,37.62
522.00,65.76
521.00,51.53
520.00,120.01
519.00,152.76
518.00,199.60
517.00,232.17
516.00,194.59
515.00,464.71
514.00,75.96
513.00,160.95
512.00,331.75
511.00,93.05
510.00,299.01
509.00,172.08
508.00,106.35
507.00,69.83
506.00,49.60
505.00,83.39
504.00,117.34
503.00,77.32
502.00,99.78
501.00,50.23
500.00,41.83
499.00,102.55
498.00,297.79
497.00,251.86
496.00,142.49
495.00,88.33
494.00,75.15
493.00,47.69
492.00,48.59
491.00,58.20
490.00,90.75
489.00,90.79
488.00,87.88
487.00,23.51
486.00,58.48
485.00,29.74
484.00,39.10
483.00,61.18
482.00,190.56
481.00,268.07
480.00,344.81
479.00,239.10
478.00,104.07
477.00,106.21
476.00,102.85
475.00,53.41
474.00,41.15
473.00,83.38
472.00,113.84
471.00,152.56
470.00,216.38
469.00,82.48
468.00,57.84
467.00,20.19
466.00,72.18
465.00,43.85
464.00,12.32
463.00,155.69
462.00,148.35
461.00,169.29
460.00,157.27
459.00,94.25
458.00,81.56
457.00,19.60
456.00,28.58
455.00,22.16
454.00,104.64
453.00,57.38
452.00,21.07
451.00,140.61
450.00,608.89
