Created as New Dataset,Sample 004 By Administrator Date Tuesday, October 21 2025
cm-1,%T
4000.00,99.84
3999.00,99.84
3998.00,99.85
3997.00,99.85
3996.00,99.84
3995.00,99.84
3994.00,99.84
3993.00,99.84
3992.00,99.84
3991.00,99.84
3990.00,99.84
3989.00,99.84
3988.00,99.84
3987.00,99.84
3986.00,99.84
3985.00,99.85
3984.00,99.85
3983.00,99.85
3982.00,99.85
3981.00,99.85
3980.00,99.84
3979.00,99.84
3978.00,99.84
3977.00,99.84
3976.00,99.84
3975.00,99.84
3974.00,99.84
3973.00,99.84
3972.00,99.84
3971.00,99.83
3970.00,99.83
3969.00,99.82
3968.00,99.82
3967.00,99.82
3966.00,99.83
3965.00,99.83
3964.00,99.84
3963.00,99.84
3962.00,99.85
3961.00,99.85
3960.00,99.85
3959.00,99.85
3958.00,99.84
3957.00,99.84
3956.00,99.84
3955.00,99.84
3954.00,99.84
3953.00,99.84
3952.00,99.84
3951.00,99.84
3950.00,99.83
3949.00,99.84
3948.00,99.84
3947.00,99.84
3946.00,99.85
3945.00,99.85
3944.00,99.84
3943.00,99.84
3942.00,99.83
3941.00,99.83
3940.00,99.84
3939.00,99.84
3938.00,99.84
3937.00,99.84
3936.00,99.84
3935.00,99.84
3934.00,99.84
3933.00,99.84
3932.00,99.84
3931.00,99.85
3930.00,99.85
3929.00,99.86
3928.00,99.86
3927.00,99.86
3926.00,99.86
3925.00,99.86
3924.00,99.86
3923.00,99.87
3922.00,99.88
3921.00,99.87
3920.00,99.86
3919.00,99.84
3918.00,99.84
3917.00,99.84
3916.00,99.84
3915.00,99.85
3914.00,99.85
3913.00,99.85
3912.00,99.85
3911.00,99.86
3910.00,99.87
3909.00,99.87
3908.00,99.87
3907.00,99.87
3906.00,99.87
3905.00,99.88
3904.00,99.89
3903.00,99.89
3902.00,99.90
3901.00,99.89
3900.00,99.88
3899.00,99.87
3898.00,99.87
3897.00,99.88
3896.00,99.88
3895.00,99.88
3894.00,99.88
3893.00,99.90
3892.00,99.92
3891.00,99.91
3890.00,99.90
3889.00,99.89
3888.00,99.89
3887.00,99.89
3886.00,99.88
3885.00,99.87
3884.00,99.87
3883.00,99.87
3882.00,99.87
3881.00,99.86
3880.00,99.86
3879.00,99.88
3878.00,99.89
3877.00,99.89
3876.00,99.88
3875.00,99.88
3874.00,99.89
3873.00,99.91
3872.00,99.95
3871.00,99.97
3870.00,99.94
3869.00,99.91
3868.00,99.90
3867.00,99.92
3866.00,99.92
3865.00,99.91
3864.00,99.90
3863.00,99.91
3862.00,99.91
3861.00,99.90
3860.00,99.89
3859.00,99.87
3858.00,99.81
3857.00,99.70
3856.00,99.63
3855.00,99.65
3854.00,99.72
3853.00,99.77
3852.00,99.82
3851.00,99.85
3850.00,99.86
3849.00,99.85
3848.00,99.85
3847.00,99.86
3846.00,99.87
3845.00,99.87
3844.00,99.89
3843.00,99.91
3842.00,99.93
3841.00,99.97
3840.00,100.01
3839.00,100.03
3838.00,100.01
3837.00,99.97
3836.00,99.93
3835.00,99.92
3834.00,99.91
3833.00,99.91
3832.00,99.90
3831.00,99.89
3830.00,99.87
3829.00,99.87
3828.00,99.86
3827.00,99.86
3826.00,99.87
3825.00,99.88
3824.00,99.92
3823.00,99.96
3822.00,99.97
3821.00,99.95
3820.00,99.93
3819.00,99.94
3818.00,99.95
3817.00,99.94
3816.00,99.90
3815.00,99.86
3814.00,99.87
3813.00,99.89
3812.00,99.90
3811.00,99.88
3810.00,99.88
3809.00,99.89
3808.00,99.90
3807.00,99.90
3806.00,99.88
3805.00,99.88
3804.00,99.90
3803.00,99.92
3802.00,99.91
3801.00,99.88
3800.00,99.86
3799.00,99.86
3798.00,99.86
3797.00,99.85
3796.00,99.85
3795.00,99.86
3794.00,99.87
3793.00,99.87
3792.00,99.86
3791.00,99.85
3790.00,99.85
3789.00,99.85
3788.00,99.85
3787.00,99.83
3786.00,99.83
3785.00,99.83
3784.00,99.84
3783.00,99.85
3782.00,99.85
3781.00,99.85
3780.00,99.85
3779.00,99.85
3778.00,99.86
3777.00,99.87
3776.00,99.88
3775.00,99.87
3774.00,99.86
3773.00,99.86
3772.00,99.87
3771.00,99.87
3770.00,99.87
3769.00,99.87
3768.00,99.89
3767.00,99.89
3766.00,99.87
3765.00,99.86
3764.00,99.86
3763.00,99.86
3762.00,99.87
3761.00,99.86
3760.00,99.87
3759.00,99.88
3758.00,99.89
3757.00,99.89
3756.00,99.89
3755.00,99.87
3754.00,99.86
3753.00,99.83
3752.00,99.77
3751.00,99.71
3750.00,99.66
3749.00,99.66
3748.00,99.67
3747.00,99.67
3746.00,99.65
3745.00,99.64
3744.00,99.64
3743.00,99.71
3742.00,99.80
3741.00,99.82
3740.00,99.79
3739.00,99.77
3738.00,99.80
3737.00,99.84
3736.00,99.87
3735.00,99.88
3734.00,99.89
3733.00,99.88
3732.00,99.85
3731.00,99.84
3730.00,99.84
3729.00,99.85
3728.00,99.85
3727.00,99.84
3726.00,99.84
3725.00,99.85
3724.00,99.85
3723.00,99.85
3722.00,99.86
3721.00,99.86
3720.00,99.87
3719.00,99.87
3718.00,99.88
3717.00,99.88
3716.00,99.88
3715.00,99.88
3714.00,99.87
3713.00,99.87
3712.00,99.86
3711.00,99.86
3710.00,99.87
3709.00,99.87
3708.00,99.87
3707.00,99.87
3706.00,99.86
3705.00,99.86
3704.00,99.86
3703.00,99.87
3702.00,99.88
3701.00,99.88
3700.00,99.88
3699.00,99.88
3698.00,99.86
3697.00,99.85
3696.00,99.85
3695.00,99.87
3694.00,99.88
3693.00,99.89
3692.00,99.91
3691.00,99.94
3690.00,99.96
3689.00,99.94
3688.00,99.89
3687.00,99.86
3686.00,99.85
3685.00,99.86
3684.00,99.86
3683.00,99.85
3682.00,99.86
3681.00,99.88
3680.00,99.89
3679.00,99.90
3678.00,99.92
3677.00,99.96
3676.00,99.96
3675.00,99.93
3674.00,99.93
3673.00,99.96
3672.00,99.98
3671.00,99.97
3670.00,99.92
3669.00,99.89
3668.00,99.88
3667.00,99.88
3666.00,99.87
3665.00,99.86
3664.00,99.85
3663.00,99.86
3662.00,99.87
3661.00,99.88
3660.00,99.88
3659.00,99.89
3658.00,99.90
3657.00,99.90
3656.00,99.90
3655.00,99.90
3654.00,99.92
3653.00,99.94
3652.00,99.97
3651.00,100.01
3650.00,100.03
3649.00,100.00
3648.00,99.94
3647.00,99.89
3646.00,99.87
3645.00,99.87
3644.00,99.86
3643.00,99.85
3642.00,99.85
3641.00,99.85
3640.00,99.85
3639.00,99.85
3638.00,99.85
3637.00,99.85
3636.00,99.85
3635.00,99.86
3634.00,99.86
3633.00,99.85
3632.00,99.84
3631.00,99.85
3630.00,99.87
3629.00,99.87
3628.00,99.85
3627.00,99.85
3626.00,99.85
3625.00,99.84
3624.00,99.84
3623.00,99.86
3622.00,99.89
3621.00,99.93
3620.00,99.94
3619.00,99.93
3618.00,99.90
3617.00,99.88
3616.00,99.86
3615.00,99.86
3614.00,99.86
3613.00,99.86
3612.00,99.86
3611.00,99.84
3610.00,99.83
3609.00,99.81
3608.00,99.81
3607.00,99.83
3606.00,99.85
3605.00,99.85
3604.00,99.84
3603.00,99.83
3602.00,99.83
3601.00,99.82
3600.00,99.82
3599.00,99.83
3598.00,99.84
3597.00,99.84
3596.00,99.84
3595.00,99.85
3594.00,99.85
3593.00,99.85
3592.00,99.84
3591.00,99.83
3590.00,99.82
3589.00,99.82
3588.00,99.83
3587.00,99.84
3586.00,99.85
3585.00,99.85
3584.00,99.85
3583.00,99.85
3582.00,99.85
3581.00,99.85
3580.00,99.85
3579.00,99.85
3578.00,99.84
3577.00,99.83
3576.00,99.83
3575.00,99.84
3574.00,99.85
3573.00,99.85
3572.00,99.86
3571.00,99.86
3570.00,99.86
3569.00,99.85
3568.00,99.85
3567.00,99.84
3566.00,99.85
3565.00,99.85
3564.00,99.85
3563.00,99.84
3562.00,99.84
3561.00,99.83
3560.00,99.84
3559.00,99.85
3558.00,99.85
3557.00,99.85
3556.00,99.84
3555.00,99.83
3554.00,99.82
3553.00,99.82
3552.00,99.82
3551.00,99.83
3550.00,99.83
3549.00,99.83
3548.00,99.83
3547.00,99.83
3546.00,99.83
3545.00,99.83
3544.00,99.83
3543.00,99.83
3542.00,99.84
3541.00,99.84
3540.00,99.84
3539.00,99.85
3538.00,99.85
3537.00,99.85
3536.00,99.85
3535.00,99.85
3534.00,99.85
3533.00,99.84
3532.00,99.84
3531.00,99.83
3530.00,99.83
3529.00,99.83
3528.00,99.83
3527.00,99.84
3526.00,99.84
3525.00,99.84
3524.00,99.84
3523.00,99.84
3522.00,99.84
3521.00,99.84
3520.00,99.84
3519.00,99.83
3518.00,99.83
3517.00,99.83
3516.00,99.83
3515.00,99.83
3514.00,99.83
3513.00,99.83
3512.00,99.82
3511.00,99.82
3510.00,99.82
3509.00,99.83
3508.00,99.83
3507.00,99.84
3506.00,99.83
3505.00,99.83
3504.00,99.82
3503.00,99.83
3502.00,99.83
3501.00,99.84
3500.00,99.84
3499.00,99.84
3498.00,99.84
3497.00,99.84
3496.00,99.84
3495.00,99.84
3494.00,99.85
3493.00,99.85
3492.00,99.85
3491.00,99.84
3490.00,99.84
3489.00,99.84
3488.00,99.84
3487.00,99.84
3486.00,99.84
3485.00,99.83
3484.00,99.83
3483.00,99.82
3482.00,99.83
3481.00,99.83
3480.00,99.83
3479.00,99.84
3478.00,99.84
3477.00,99.83
3476.00,99.83
3475.00,99.83
3474.00,99.83
3473.00,99.83
3472.00,99.83
3471.00,99.83
3470.00,99.83
3469.00,99.82
3468.00,99.83
3467.00,99.83
3466.00,99.83
3465.00,99.83
3464.00,99.83
3463.00,99.83
3462.00,99.83
3461.00,99.83
3460.00,99.84
3459.00,99.84
3458.00,99.84
3457.00,99.84
3456.00,99.84
3455.00,99.83
3454.00,99.83
3453.00,99.83
3452.00,99.82
3451.00,99.82
3450.00,99.81
3449.00,99.81
3448.00,99.81
3447.00,99.81
3446.00,99.82
3445.00,99.82
3444.00,99.82
3443.00,99.82
3442.00,99.83
3441.00,99.83
3440.00,99.83
3439.00,99.83
3438.00,99.83
3437.00,99.82
3436.00,99.82
3435.00,99.82
3434.00,99.83
3433.00,99.83
3432.00,99.83
3431.00,99.83
3430.00,99.83
3429.00,99.83
3428.00,99.83
3427.00,99.83
3426.00,99.83
3425.00,99.82
3424.00,99.82
3423.00,99.82
3422.00,99.82
3421.00,99.83
3420.00,99.83
3419.00,99.83
3418.00,99.83
3417.00,99.82
3416.00,99.81
3415.00,99.81
3414.00,99.81
3413.00,99.81
3412.00,99.82
3411.00,99.82
3410.00,99.82
3409.00,99.82
3408.00,99.82
3407.00,99.82
3406.00,99.82
3405.00,99.82
3404.00,99.82
3403.00,99.81
3402.00,99.81
3401.00,99.81
3400.00,99.81
3399.00,99.81
3398.00,99.81
3397.00,99.81
3396.00,99.81
3395.00,99.81
3394.00,99.81
3393.00,99.81
3392.00,99.82
3391.00,99.82
3390.00,99.82
3389.00,99.82
3388.00,99.81
3387.00,99.82
3386.00,99.82
3385.00,99.82
3384.00,99.81
3383.00,99.81
3382.00,99.82
3381.00,99.82
3380.00,99.82
3379.00,99.82
3378.00,99.82
3377.00,99.81
3376.00,99.81
3375.00,99.81
3374.00,99.81
3373.00,99.81
3372.00,99.81
3371.00,99.81
3370.00,99.81
3369.00,99.81
3368.00,99.81
3367.00,99.81
3366.00,99.81
3365.00,99.81
3364.00,99.81
3363.00,99.81
3362.00,99.81
3361.00,99.81
3360.00,99.81
3359.00,99.81
3358.00,99.81
3357.00,99.81
3356.00,99.81
3355.00,99.81
3354.00,99.81
3353.00,99.81
3352.00,99.81
3351.00,99.80
3350.00,99.80
3349.00,99.79
3348.00,99.79
3347.00,99.79
3346.00,99.79
3345.00,99.79
3344.00,99.79
3343.00,99.79
3342.00,99.79
3341.00,99.79
3340.00,99.80
3339.00,99.80
3338.00,99.80
3337.00,99.80
3336.00,99.80
3335.00,99.80
3334.00,99.80
3333.00,99.79
3332.00,99.79
3331.00,99.79
3330.00,99.79
3329.00,99.79
3328.00,99.79
3327.00,99.79
3326.00,99.79
3325.00,99.79
3324.00,99.79
3323.00,99.79
3322.00,99.80
3321.00,99.80
3320.00,99.80
3319.00,99.79
3318.00,99.79
3317.00,99.79
3316.00,99.79
3315.00,99.79
3314.00,99.80
3313.00,99.80
3312.00,99.80
3311.00,99.80
3310.00,99.79
3309.00,99.78
3308.00,99.78
3307.00,99.78
3306.00,99.79
3305.00,99.79
3304.00,99.80
3303.00,99.80
3302.00,99.80
3301.00,99.80
3300.00,99.80
3299.00,99.79
3298.00,99.80
3297.00,99.80
3296.00,99.80
3295.00,99.80
3294.00,99.79
3293.00,99.79
3292.00,99.78
3291.00,99.79
3290.00,99.79
3289.00,99.79
3288.00,99.80
3287.00,99.80
3286.00,99.80
3285.00,99.79
3284.00,99.79
3283.00,99.79
3282.00,99.78
3281.00,99.78
3280.00,99.79
3279.00,99.79
3278.00,99.79
3277.00,99.79
3276.00,99.79
3275.00,99.78
3274.00,99.78
3273.00,99.78
3272.00,99.78
3271.00,99.78
3270.00,99.79
3269.00,99.79
3268.00,99.79
3267.00,99.79
3266.00,99.79
3265.00,99.79
3264.00,99.79
3263.00,99.79
3262.00,99.79
3261.00,99.79
3260.00,99.79
3259.00,99.79
3258.00,99.79
3257.00,99.79
3256.00,99.79
3255.00,99.79
3254.00,99.79
3253.00,99.79
3252.00,99.79
3251.00,99.79
3250.00,99.79
3249.00,99.79
3248.00,99.79
3247.00,99.79
3246.00,99.79
3245.00,99.79
3244.00,99.80
3243.00,99.80
3242.00,99.80
3241.00,99.80
3240.00,99.80
3239.00,99.80
3238.00,99.80
3237.00,99.80
3236.00,99.80
3235.00,99.80
3234.00,99.80
3233.00,99.79
3232.00,99.79
3231.00,99.79
3230.00,99.79
3229.00,99.80
3228.00,99.80
3227.00,99.80
3226.00,99.81
3225.00,99.81
3224.00,99.81
3223.00,99.80
3222.00,99.79
3221.00,99.79
3220.00,99.79
3219.00,99.79
3218.00,99.79
3217.00,99.79
3216.00,99.79
3215.00,99.79
3214.00,99.79
3213.00,99.80
3212.00,99.80
3211.00,99.80
3210.00,99.79
3209.00,99.80
3208.00,99.80
3207.00,99.81
3206.00,99.81
3205.00,99.81
3204.00,99.81
3203.00,99.81
3202.00,99.81
3201.00,99.81
3200.00,99.80
3199.00,99.80
3198.00,99.80
3197.00,99.80
3196.00,99.80
3195.00,99.80
3194.00,99.80
3193.00,99.79
3192.00,99.80
3191.00,99.80
3190.00,99.81
3189.00,99.81
3188.00,99.82
3187.00,99.81
3186.00,99.81
3185.00,99.80
3184.00,99.80
3183.00,99.80
3182.00,99.80
3181.00,99.80
3180.00,99.79
3179.00,99.79
3178.00,99.79
3177.00,99.80
3176.00,99.80
3175.00,99.81
3174.00,99.81
3173.00,99.81
3172.00,99.81
3171.00,99.80
3170.00,99.80
3169.00,99.80
3168.00,99.80
3167.00,99.80
3166.00,99.80
3165.00,99.80
3164.00,99.81
3163.00,99.81
3162.00,99.81
3161.00,99.81
3160.00,99.81
3159.00,99.80
3158.00,99.80
3157.00,99.80
3156.00,99.80
3155.00,99.80
3154.00,99.80
3153.00,99.80
3152.00,99.80
3151.00,99.80
3150.00,99.81
3149.00,99.81
3148.00,99.81
3147.00,99.81
3146.00,99.81
3145.00,99.81
3144.00,99.80
3143.00,99.80
3142.00,99.80
3141.00,99.80
3140.00,99.81
3139.00,99.81
3138.00,99.81
3137.00,99.81
3136.00,99.81
3135.00,99.81
3134.00,99.81
3133.00,99.82
3132.00,99.82
3131.00,99.83
3130.00,99.82
3129.00,99.82
3128.00,99.81
3127.00,99.81
3126.00,99.81
3125.00,99.81
3124.00,99.81
3123.00,99.81
3122.00,99.81
3121.00,99.81
3120.00,99.81
3119.00,99.81
3118.00,99.80
3117.00,99.80
3116.00,99.80
3115.00,99.80
3114.00,99.81
3113.00,99.81
3112.00,99.81
3111.00,99.81
3110.00,99.81
3109.00,99.81
3108.00,99.81
3107.00,99.81
3106.00,99.81
3105.00,99.81
3104.00,99.81
3103.00,99.81
3102.00,99.81
3101.00,99.81
3100.00,99.81
3099.00,99.81
3098.00,99.81
3097.00,99.80
3096.00,99.80
3095.00,99.80
3094.00,99.81
3093.00,99.81
3092.00,99.81
3091.00,99.81
3090.00,99.81
3089.00,99.81
3088.00,99.81
3087.00,99.81
3086.00,99.81
3085.00,99.81
3084.00,99.81
3083.00,99.80
3082.00,99.80
3081.00,99.80
3080.00,99.81
3079.00,99.81
3078.00,99.81
3077.00,99.81
3076.00,99.81
3075.00,99.82
3074.00,99.82
3073.00,99.82
3072.00,99.82
3071.00,99.81
3070.00,99.81
3069.00,99.81
3068.00,99.80
3067.00,99.80
3066.00,99.80
3065.00,99.81
3064.00,99.81
3063.00,99.82
3062.00,99.82
3061.00,99.82
3060.00,99.82
3059.00,99.81
3058.00,99.81
3057.00,99.81
3056.00,99.81
3055.00,99.81
3054.00,99.82
3053.00,99.82
3052.00,99.82
3051.00,99.82
3050.00,99.82
3049.00,99.82
3048.00,99.82
3047.00,99.82
3046.00,99.82
3045.00,99.82
3044.00,99.82
3043.00,99.82
3042.00,99.82
3041.00,99.82
3040.00,99.82
3039.00,99.82
3038.00,99.82
3037.00,99.82
3036.00,99.83
3035.00,99.82
3034.00,99.82
3033.00,99.81
3032.00,99.80
3031.00,99.80
3030.00,99.81
3029.00,99.82
3028.00,99.82
3027.00,99.82
3026.00,99.81
3025.00,99.81
3024.00,99.81
3023.00,99.81
3022.00,99.82
3021.00,99.82
3020.00,99.82
3019.00,99.81
3018.00,99.81
3017.00,99.80
3016.00,99.80
3015.00,99.80
3014.00,99.81
3013.00,99.81
3012.00,99.82
3011.00,99.82
3010.00,99.81
3009.00,99.81
3008.00,99.81
3007.00,99.81
3006.00,99.81
3005.00,99.81
3004.00,99.81
3003.00,99.81
3002.00,99.81
3001.00,99.81
3000.00,99.81
2999.00,99.82
2998.00,99.82
2997.00,99.82
2996.00,99.81
2995.00,99.81
2994.00,99.80
2993.00,99.80
2992.00,99.81
2991.00,99.81
2990.00,99.81
2989.00,99.81
2988.00,99.81
2987.00,99.81
2986.00,99.82
2985.00,99.82
2984.00,99.81
2983.00,99.81
2982.00,99.81
2981.00,99.81
2980.00,99.81
2979.00,99.80
2978.00,99.80
2977.00,99.80
2976.00,99.79
2975.00,99.80
2974.00,99.80
2973.00,99.80
2972.00,99.80
2971.00,99.80
2970.00,99.80
2969.00,99.80
2968.00,99.80
2967.00,99.80
2966.00,99.80
2965.00,99.80
2964.00,99.80
2963.00,99.80
2962.00,99.80
2961.00,99.80
2960.00,99.80
2959.00,99.81
2958.00,99.81
2957.00,99.81
2956.00,99.81
2955.00,99.80
2954.00,99.80
2953.00,99.80
2952.00,99.80
2951.00,99.80
2950.00,99.79
2949.00,99.79
2948.00,99.79
2947.00,99.79
2946.00,99.79
2945.00,99.79
2944.00,99.79
2943.00,99.79
2942.00,99.79
2941.00,99.80
2940.00,99.80
2939.00,99.80
2938.00,99.80
2937.00,99.80
2936.00,99.79
2935.00,99.80
2934.00,99.80
2933.00,99.81
2932.00,99.81
2931.00,99.82
2930.00,99.83
2929.00,99.84
2928.00,99.85
2927.00,99.85
2926.00,99.87
2925.00,99.88
2924.00,99.91
2923.00,99.93
2922.00,99.96
2921.00,99.98
2920.00,100.01
2919.00,100.03
2918.00,100.06
2917.00,100.06
2916.00,100.05
2915.00,100.02
2914.00,99.98
2913.00,99.94
2912.00,99.91
2911.00,99.89
2910.00,99.87
2909.00,99.86
2908.00,99.85
2907.00,99.84
2906.00,99.83
2905.00,99.82
2904.00,99.82
2903.00,99.82
2902.00,99.82
2901.00,99.83
2900.00,99.83
2899.00,99.83
2898.00,99.82
2897.00,99.82
2896.00,99.81
2895.00,99.81
2894.00,99.80
2893.00,99.80
2892.00,99.80
2891.00,99.81
2890.00,99.81
2889.00,99.82
2888.00,99.82
2887.00,99.82
2886.00,99.81
2885.00,99.81
2884.00,99.81
2883.00,99.81
2882.00,99.82
2881.00,99.82
2880.00,99.81
2879.00,99.81
2878.00,99.80
2877.00,99.80
2876.00,99.80
2875.00,99.80
2874.00,99.80
2873.00,99.79
2872.00,99.79
2871.00,99.80
2870.00,99.80
2869.00,99.80
2868.00,99.79
2867.00,99.79
2866.00,99.79
2865.00,99.79
2864.00,99.80
2863.00,99.80
2862.00,99.80
2861.00,99.80
2860.00,99.81
2859.00,99.81
2858.00,99.81
2857.00,99.82
2856.00,99.83
2855.00,99.85
2854.00,99.87
2853.00,99.90
2852.00,99.93
2851.00,99.96
2850.00,99.98
2849.00,99.97
2848.00,99.95
2847.00,99.92
2846.00,99.89
2845.00,99.87
2844.00,99.85
2843.00,99.83
2842.00,99.82
2841.00,99.81
2840.00,99.81
2839.00,99.81
2838.00,99.81
2837.00,99.81
2836.00,99.81
2835.00,99.81
2834.00,99.81
2833.00,99.81
2832.00,99.81
2831.00,99.80
2830.00,99.81
2829.00,99.81
2828.00,99.81
2827.00,99.81
2826.00,99.81
2825.00,99.81
2824.00,99.80
2823.00,99.80
2822.00,99.80
2821.00,99.80
2820.00,99.80
2819.00,99.80
2818.00,99.80
2817.00,99.81
2816.00,99.81
2815.00,99.81
2814.00,99.81
2813.00,99.80
2812.00,99.80
2811.00,99.80
2810.00,99.80
2809.00,99.81
2808.00,99.81
2807.00,99.81
2806.00,99.81
2805.00,99.80
2804.00,99.80
2803.00,99.81
2802.00,99.81
2801.00,99.81
2800.00,99.82
2799.00,99.82
2798.00,99.81
2797.00,99.81
2796.00,99.81
2795.00,99.81
2794.00,99.81
2793.00,99.81
2792.00,99.81
2791.00,99.81
2790.00,99.81
2789.00,99.80
2788.00,99.80
2787.00,99.80
2786.00,99.81
2785.00,99.81
2784.00,99.81
2783.00,99.81
2782.00,99.81
2781.00,99.81
2780.00,99.81
2779.00,99.81
2778.00,99.81
2777.00,99.81
2776.00,99.81
2775.00,99.81
2774.00,99.81
2773.00,99.81
2772.00,99.81
2771.00,99.82
2770.00,99.82
2769.00,99.82
2768.00,99.82
2767.00,99.81
2766.00,99.81
2765.00,99.81
2764.00,99.81
2763.00,99.81
2762.00,99.81
2761.00,99.81
2760.00,99.81
2759.00,99.81
2758.00,99.81
2757.00,99.81
2756.00,99.81
2755.00,99.81
2754.00,99.81
2753.00,99.81
2752.00,99.81
2751.00,99.81
2750.00,99.81
2749.00,99.81
2748.00,99.80
2747.00,99.80
2746.00,99.81
2745.00,99.81
2744.00,99.81
2743.00,99.81
2742.00,99.81
2741.00,99.81
2740.00,99.81
2739.00,99.82
2738.00,99.82
2737.00,99.82
2736.00,99.82
2735.00,99.81
2734.00,99.81
2733.00,99.81
2732.00,99.81
2731.00,99.81
2730.00,99.81
2729.00,99.81
2728.00,99.82
2727.00,99.82
2726.00,99.82
2725.00,99.82
2724.00,99.81
2723.00,99.81
2722.00,99.81
2721.00,99.81
2720.00,99.81
2719.00,99.81
2718.00,99.81
2717.00,99.81
2716.00,99.81
2715.00,99.81
2714.00,99.82
2713.00,99.82
2712.00,99.82
2711.00,99.82
2710.00,99.82
2709.00,99.82
2708.00,99.82
2707.00,99.82
2706.00,99.82
2705.00,99.82
2704.00,99.82
2703.00,99.81
2702.00,99.81
2701.00,99.81
2700.00,99.81
2699.00,99.81
2698.00,99.81
2697.00,99.81
2696.00,99.81
2695.00,99.81
2694.00,99.81
2693.00,99.81
2692.00,99.81
2691.00,99.81
2690.00,99.82
2689.00,99.82
2688.00,99.82
2687.00,99.82
2686.00,99.82
2685.00,99.81
2684.00,99.81
2683.00,99.81
2682.00,99.82
2681.00,99.82
2680.00,99.82
2679.00,99.82
2678.00,99.81
2677.00,99.81
2676.00,99.81
2675.00,99.81
2674.00,99.81
2673.00,99.81
2672.00,99.81
2671.00,99.81
2670.00,99.81
2669.00,99.81
2668.00,99.81
2667.00,99.81
2666.00,99.81
2665.00,99.81
2664.00,99.81
2663.00,99.82
2662.00,99.82
2661.00,99.81
2660.00,99.82
2659.00,99.82
2658.00,99.82
2657.00,99.82
2656.00,99.83
2655.00,99.83
2654.00,99.82
2653.00,99.81
2652.00,99.81
2651.00,99.81
2650.00,99.81
2649.00,99.81
2648.00,99.82
2647.00,99.82
2646.00,99.82
2645.00,99.82
2644.00,99.82
2643.00,99.82
2642.00,99.82
2641.00,99.82
2640.00,99.82
2639.00,99.81
2638.00,99.81
2637.00,99.81
2636.00,99.81
2635.00,99.81
2634.00,99.82
2633.00,99.82
2632.00,99.82
2631.00,99.82
2630.00,99.82
2629.00,99.82
2628.00,99.82
2627.00,99.82
2626.00,99.82
2625.00,99.82
2624.00,99.82
2623.00,99.82
2622.00,99.82
2621.00,99.82
2620.00,99.82
2619.00,99.82
2618.00,99.81
2617.00,99.81
2616.00,99.81
2615.00,99.81
2614.00,99.82
2613.00,99.82
2612.00,99.82
2611.00,99.82
2610.00,99.82
2609.00,99.81
2608.00,99.81
2607.00,99.82
2606.00,99.82
2605.00,99.82
2604.00,99.82
2603.00,99.82
2602.00,99.82
2601.00,99.82
2600.00,99.82
2599.00,99.82
2598.00,99.82
2597.00,99.82
2596.00,99.81
2595.00,99.81
2594.00,99.81
2593.00,99.81
2592.00,99.81
2591.00,99.81
2590.00,99.81
2589.00,99.82
2588.00,99.82
2587.00,99.82
2586.00,99.82
2585.00,99.82
2584.00,99.82
2583.00,99.82
2582.00,99.82
2581.00,99.83
2580.00,99.83
2579.00,99.83
2578.00,99.83
2577.00,99.83
2576.00,99.83
2575.00,99.83
2574.00,99.83
2573.00,99.82
2572.00,99.82
2571.00,99.81
2570.00,99.81
2569.00,99.82
2568.00,99.82
2567.00,99.82
2566.00,99.82
2565.00,99.82
2564.00,99.82
2563.00,99.82
2562.00,99.82
2561.00,99.82
2560.00,99.82
2559.00,99.82
2558.00,99.82
2557.00,99.82
2556.00,99.83
2555.00,99.83
2554.00,99.83
2553.00,99.83
2552.00,99.82
2551.00,99.82
2550.00,99.82
2549.00,99.81
2548.00,99.81
2547.00,99.81
2546.00,99.82
2545.00,99.82
2544.00,99.82
2543.00,99.83
2542.00,99.83
2541.00,99.83
2540.00,99.83
2539.00,99.83
2538.00,99.83
2537.00,99.83
2536.00,99.83
2535.00,99.83
2534.00,99.82
2533.00,99.82
2532.00,99.82
2531.00,99.82
2530.00,99.82
2529.00,99.82
2528.00,99.82
2527.00,99.82
2526.00,99.82
2525.00,99.82
2524.00,99.82
2523.00,99.82
2522.00,99.82
2521.00,99.81
2520.00,99.81
2519.00,99.82
2518.00,99.82
2517.00,99.82
2516.00,99.83
2515.00,99.83
2514.00,99.83
2513.00,99.83
2512.00,99.83
2511.00,99.82
2510.00,99.82
2509.00,99.81
2508.00,99.81
2507.00,99.81
2506.00,99.81
2505.00,99.81
2504.00,99.81
2503.00,99.81
2502.00,99.81
2501.00,99.81
2500.00,99.81
2499.00,99.82
2498.00,99.82
2497.00,99.82
2496.00,99.83
2495.00,99.83
2494.00,99.83
2493.00,99.83
2492.00,99.83
2491.00,99.83
2490.00,99.83
2489.00,99.82
2488.00,99.82
2487.00,99.82
2486.00,99.82
2485.00,99.83
2484.00,99.83
2483.00,99.83
2482.00,99.83
2481.00,99.83
2480.00,99.83
2479.00,99.82
2478.00,99.82
2477.00,99.82
2476.00,99.82
2475.00,99.82
2474.00,99.83
2473.00,99.83
2472.00,99.83
2471.00,99.83
2470.00,99.83
2469.00,99.83
2468.00,99.82
2467.00,99.82
2466.00,99.82
2465.00,99.83
2464.00,99.83
2463.00,99.82
2462.00,99.82
2461.00,99.82
2460.00,99.83
2459.00,99.83
2458.00,99.83
2457.00,99.82
2456.00,99.82
2455.00,99.82
2454.00,99.82
2453.00,99.83
2452.00,99.83
2451.00,99.84
2450.00,99.84
2449.00,99.83
2448.00,99.83
2447.00,99.83
2446.00,99.83
2445.00,99.83
2444.00,99.83
2443.00,99.83
2442.00,99.83
2441.00,99.82
2440.00,99.83
2439.00,99.83
2438.00,99.83
2437.00,99.83
2436.00,99.83
2435.00,99.83
2434.00,99.83
2433.00,99.83
2432.00,99.83
2431.00,99.83
2430.00,99.83
2429.00,99.83
2428.00,99.83
2427.00,99.83
2426.00,99.83
2425.00,99.83
2424.00,99.83
2423.00,99.82
2422.00,99.82
2421.00,99.82
2420.00,99.83
2419.00,99.83
2418.00,99.83
2417.00,99.83
2416.00,99.84
2415.00,99.84
2414.00,99.84
2413.00,99.83
2412.00,99.83
2411.00,99.82
2410.00,99.82
2409.00,99.82
2408.00,99.82
2407.00,99.82
2406.00,99.83
2405.00,99.83
2404.00,99.84
2403.00,99.84
2402.00,99.84
2401.00,99.83
2400.00,99.83
2399.00,99.83
2398.00,99.83
2397.00,99.83
2396.00,99.83
2395.00,99.82
2394.00,99.82
2393.00,99.83
2392.00,99.83
2391.00,99.83
2390.00,99.83
2389.00,99.83
2388.00,99.83
2387.00,99.83
2386.00,99.82
2385.00,99.82
2384.00,99.82
2383.00,99.82
2382.00,99.81
2381.00,99.81
2380.00,99.81
2379.00,99.81
2378.00,99.80
2377.00,99.80
2376.00,99.80
2375.00,99.80
2374.00,99.80
2373.00,99.80
2372.00,99.80
2371.00,99.80
2370.00,99.80
2369.00,99.80
2368.00,99.79
2367.00,99.79
2366.00,99.79
2365.00,99.80
2364.00,99.80
2363.00,99.80
2362.00,99.80
2361.00,99.80
2360.00,99.79
2359.00,99.78
2358.00,99.77
2357.00,99.76
2356.00,99.76
2355.00,99.77
2354.00,99.77
2353.00,99.76
2352.00,99.75
2351.00,99.76
2350.00,99.76
2349.00,99.77
2348.00,99.77
2347.00,99.76
2346.00,99.76
2345.00,99.75
2344.00,99.74
2343.00,99.74
2342.00,99.74
2341.00,99.75
2340.00,99.75
2339.00,99.76
2338.00,99.76
2337.00,99.76
2336.00,99.76
2335.00,99.76
2334.00,99.76
2333.00,99.76
2332.00,99.76
2331.00,99.75
2330.00,99.75
2329.00,99.75
2328.00,99.75
2327.00,99.75
2326.00,99.75
2325.00,99.75
2324.00,99.76
2323.00,99.76
2322.00,99.76
2321.00,99.77
2320.00,99.77
2319.00,99.78
2318.00,99.78
2317.00,99.79
2316.00,99.79
2315.00,99.79
2314.00,99.79
2313.00,99.79
2312.00,99.79
2311.00,99.79
2310.00,99.79
2309.00,99.79
2308.00,99.79
2307.00,99.80
2306.00,99.80
2305.00,99.80
2304.00,99.80
2303.00,99.80
2302.00,99.80
2301.00,99.81
2300.00,99.81
2299.00,99.81
2298.00,99.81
2297.00,99.82
2296.00,99.82
2295.00,99.82
2294.00,99.83
2293.00,99.83
2292.00,99.83
2291.00,99.83
2290.00,99.83
2289.00,99.84
2288.00,99.84
2287.00,99.85
2286.00,99.85
2285.00,99.85
2284.00,99.85
2283.00,99.85
2282.00,99.84
2281.00,99.84
2280.00,99.83
2279.00,99.83
2278.00,99.83
2277.00,99.83
2276.00,99.84
2275.00,99.84
2274.00,99.84
2273.00,99.83
2272.00,99.84
2271.00,99.84
2270.00,99.84
2269.00,99.84
2268.00,99.84
2267.00,99.84
2266.00,99.84
2265.00,99.84
2264.00,99.84
2263.00,99.84
2262.00,99.84
2261.00,99.84
2260.00,99.84
2259.00,99.84
2258.00,99.84
2257.00,99.84
2256.00,99.84
2255.00,99.84
2254.00,99.84
2253.00,99.84
2252.00,99.84
2251.00,99.84
2250.00,99.84
2249.00,99.84
2248.00,99.84
2247.00,99.85
2246.00,99.85
2245.00,99.85
2244.00,99.85
2243.00,99.85
2242.00,99.85
2241.00,99.84
2240.00,99.84
2239.00,99.84
2238.00,99.84
2237.00,99.84
2236.00,99.84
2235.00,99.84
2234.00,99.84
2233.00,99.84
2232.00,99.84
2231.00,99.84
2230.00,99.84
2229.00,99.85
2228.00,99.85
2227.00,99.85
2226.00,99.84
2225.00,99.84
2224.00,99.84
2223.00,99.85
2222.00,99.85
2221.00,99.85
2220.00,99.85
2219.00,99.85
2218.00,99.85
2217.00,99.85
2216.00,99.85
2215.00,99.85
2214.00,99.84
2213.00,99.84
2212.00,99.84
2211.00,99.84
2210.00,99.84
2209.00,99.84
2208.00,99.84
2207.00,99.85
2206.00,99.85
2205.00,99.85
2204.00,99.86
2203.00,99.86
2202.00,99.86
2201.00,99.86
2200.00,99.86
2199.00,99.86
2198.00,99.85
2197.00,99.85
2196.00,99.85
2195.00,99.85
2194.00,99.85
2193.00,99.85
2192.00,99.85
2191.00,99.85
2190.00,99.85
2189.00,99.85
2188.00,99.86
2187.00,99.85
2186.00,99.85
2185.00,99.85
2184.00,99.85
2183.00,99.86
2182.00,99.86
2181.00,99.86
2180.00,99.86
2179.00,99.86
2178.00,99.85
2177.00,99.85
2176.00,99.85
2175.00,99.85
2174.00,99.85
2173.00,99.86
2172.00,99.86
2171.00,99.86
2170.00,99.86
2169.00,99.86
2168.00,99.86
2167.00,99.86
2166.00,99.86
2165.00,99.86
2164.00,99.86
2163.00,99.86
2162.00,99.86
2161.00,99.86
2160.00,99.86
2159.00,99.85
2158.00,99.85
2157.00,99.85
2156.00,99.85
2155.00,99.85
2154.00,99.85
2153.00,99.85
2152.00,99.85
2151.00,99.86
2150.00,99.86
2149.00,99.86
2148.00,99.86
2147.00,99.86
2146.00,99.86
2145.00,99.86
2144.00,99.86
2143.00,99.86
2142.00,99.85
2141.00,99.85
2140.00,99.85
2139.00,99.86
2138.00,99.86
2137.00,99.86
2136.00,99.86
2135.00,99.86
2134.00,99.86
2133.00,99.85
2132.00,99.85
2131.00,99.85
2130.00,99.85
2129.00,99.86
2128.00,99.86
2127.00,99.86
2126.00,99.86
2125.00,99.86
2124.00,99.86
2123.00,99.85
2122.00,99.85
2121.00,99.85
2120.00,99.85
2119.00,99.85
2118.00,99.85
2117.00,99.85
2116.00,99.85
2115.00,99.85
2114.00,99.86
2113.00,99.86
2112.00,99.86
2111.00,99.86
2110.00,99.86
2109.00,99.86
2108.00,99.86
2107.00,99.86
2106.00,99.86
2105.00,99.86
2104.00,99.85
2103.00,99.85
2102.00,99.85
2101.00,99.85
2100.00,99.86
2099.00,99.86
2098.00,99.86
2097.00,99.86
2096.00,99.86
2095.00,99.86
2094.00,99.86
2093.00,99.86
2092.00,99.86
2091.00,99.86
2090.00,99.86
2089.00,99.87
2088.00,99.87
2087.00,99.86
2086.00,99.86
2085.00,99.85
2084.00,99.85
2083.00,99.85
2082.00,99.85
2081.00,99.85
2080.00,99.85
2079.00,99.85
2078.00,99.85
2077.00,99.86
2076.00,99.86
2075.00,99.86
2074.00,99.85
2073.00,99.85
2072.00,99.85
2071.00,99.85
2070.00,99.85
2069.00,99.85
2068.00,99.85
2067.00,99.85
2066.00,99.85
2065.00,99.85
2064.00,99.85
2063.00,99.86
2062.00,99.86
2061.00,99.86
2060.00,99.85
2059.00,99.86
2058.00,99.86
2057.00,99.86
2056.00,99.87
2055.00,99.87
2054.00,99.87
2053.00,99.87
2052.00,99.87
2051.00,99.86
2050.00,99.86
2049.00,99.86
2048.00,99.86
2047.00,99.86
2046.00,99.86
2045.00,99.86
2044.00,99.86
2043.00,99.86
2042.00,99.86
2041.00,99.86
2040.00,99.86
2039.00,99.86
2038.00,99.86
2037.00,99.86
2036.00,99.86
2035.00,99.86
2034.00,99.86
2033.00,99.86
2032.00,99.86
2031.00,99.86
2030.00,99.86
2029.00,99.86
2028.00,99.86
2027.00,99.86
2026.00,99.86
2025.00,99.87
2024.00,99.87
2023.00,99.87
2022.00,99.87
2021.00,99.86
2020.00,99.86
2019.00,99.86
2018.00,99.86
2017.00,99.87
2016.00,99.87
2015.00,99.87
2014.00,99.87
2013.00,99.86
2012.00,99.87
2011.00,99.87
2010.00,99.86
2009.00,99.86
2008.00,99.86
2007.00,99.86
2006.00,99.86
2005.00,99.86
2004.00,99.87
2003.00,99.87
2002.00,99.87
2001.00,99.87
2000.00,99.87
1999.00,99.87
1998.00,99.87
1997.00,99.87
1996.00,99.86
1995.00,99.86
1994.00,99.87
1993.00,99.87
1992.00,99.88
1991.00,99.88
1990.00,99.88
1989.00,99.87
1988.00,99.87
1987.00,99.87
1986.00,99.87
1985.00,99.86
1984.00,99.86
1983.00,99.86
1982.00,99.86
1981.00,99.86
1980.00,99.86
1979.00,99.87
1978.00,99.87
1977.00,99.88
1976.00,99.88
1975.00,99.88
1974.00,99.88
1973.00,99.88
1972.00,99.88
1971.00,99.87
1970.00,99.87
1969.00,99.86
1968.00,99.86
1967.00,99.86
1966.00,99.87
1965.00,99.87
1964.00,99.87
1963.00,99.87
1962.00,99.87
1961.00,99.87
1960.00,99.87
1959.00,99.87
1958.00,99.87
1957.00,99.87
1956.00,99.87
1955.00,99.87
1954.00,99.87
1953.00,99.87
1952.00,99.88
1951.00,99.88
1950.00,99.88
1949.00,99.88
1948.00,99.87
1947.00,99.86
1946.00,99.86
1945.00,99.86
1944.00,99.86
1943.00,99.87
1942.00,99.88
1941.00,99.88
1940.00,99.88
1939.00,99.88
1938.00,99.88
1937.00,99.88
1936.00,99.88
1935.00,99.88
1934.00,99.88
1933.00,99.87
1932.00,99.87
1931.00,99.87
1930.00,99.87
1929.00,99.87
1928.00,99.87
1927.00,99.87
1926.00,99.86
1925.00,99.86
1924.00,99.86
1923.00,99.85
1922.00,99.86
1921.00,99.87
1920.00,99.87
1919.00,99.88
1918.00,99.88
1917.00,99.88
1916.00,99.88
1915.00,99.87
1914.00,99.87
1913.00,99.87
1912.00,99.87
1911.00,99.86
1910.00,99.86
1909.00,99.86
1908.00,99.87
1907.00,99.87
1906.00,99.87
1905.00,99.87
1904.00,99.88
1903.00,99.87
1902.00,99.87
1901.00,99.87
1900.00,99.88
1899.00,99.88
1898.00,99.88
1897.00,99.88
1896.00,99.88
1895.00,99.87
1894.00,99.87
1893.00,99.87
1892.00,99.88
1891.00,99.89
1890.00,99.88
1889.00,99.89
1888.00,99.89
1887.00,99.88
1886.00,99.87
1885.00,99.87
1884.00,99.87
1883.00,99.87
1882.00,99.87
1881.00,99.87
1880.00,99.88
1879.00,99.87
1878.00,99.87
1877.00,99.87
1876.00,99.88
1875.00,99.88
1874.00,99.87
1873.00,99.88
1872.00,99.89
1871.00,99.89
1870.00,99.89
1869.00,99.88
1868.00,99.87
1867.00,99.86
1866.00,99.86
1865.00,99.87
1864.00,99.87
1863.00,99.88
1862.00,99.87
1861.00,99.87
1860.00,99.88
1859.00,99.87
1858.00,99.87
1857.00,99.87
1856.00,99.88
1855.00,99.88
1854.00,99.87
1853.00,99.87
1852.00,99.87
1851.00,99.87
1850.00,99.87
1849.00,99.87
1848.00,99.87
1847.00,99.86
1846.00,99.85
1845.00,99.85
1844.00,99.86
1843.00,99.86
1842.00,99.87
1841.00,99.88
1840.00,99.87
1839.00,99.87
1838.00,99.86
1837.00,99.87
1836.00,99.87
1835.00,99.88
1834.00,99.88
1833.00,99.88
1832.00,99.88
1831.00,99.87
1830.00,99.87
1829.00,99.87
1828.00,99.88
1827.00,99.89
1826.00,99.89
1825.00,99.89
1824.00,99.89
1823.00,99.89
1822.00,99.88
1821.00,99.88
1820.00,99.88
1819.00,99.89
1818.00,99.88
1817.00,99.88
1816.00,99.88
1815.00,99.88
1814.00,99.87
1813.00,99.85
1812.00,99.85
1811.00,99.86
1810.00,99.86
1809.00,99.87
1808.00,99.88
1807.00,99.88
1806.00,99.88
1805.00,99.88
1804.00,99.90
1803.00,99.90
1802.00,99.89
1801.00,99.87
1800.00,99.86
1799.00,99.85
1798.00,99.84
1797.00,99.84
1796.00,99.84
1795.00,99.84
1794.00,99.85
1793.00,99.87
1792.00,99.89
1791.00,99.90
1790.00,99.89
1789.00,99.88
1788.00,99.88
1787.00,99.88
1786.00,99.88
1785.00,99.88
1784.00,99.88
1783.00,99.86
1782.00,99.84
1781.00,99.82
1780.00,99.83
1779.00,99.84
1778.00,99.85
1777.00,99.85
1776.00,99.84
1775.00,99.84
1774.00,99.85
1773.00,99.85
1772.00,99.85
1771.00,99.87
1770.00,99.89
1769.00,99.90
1768.00,99.90
1767.00,99.89
1766.00,99.88
1765.00,99.87
1764.00,99.87
1763.00,99.88
1762.00,99.89
1761.00,99.88
1760.00,99.88
1759.00,99.88
1758.00,99.88
1757.00,99.87
1756.00,99.86
1755.00,99.84
1754.00,99.82
1753.00,99.80
1752.00,99.79
1751.00,99.78
1750.00,99.76
1749.00,99.74
1748.00,99.73
1747.00,99.75
1746.00,99.76
1745.00,99.77
1744.00,99.78
1743.00,99.79
1742.00,99.80
1741.00,99.80
1740.00,99.81
1739.00,99.82
1738.00,99.81
1737.00,99.77
1736.00,99.73
1735.00,99.75
1734.00,99.76
1733.00,99.76
1732.00,99.77
1731.00,99.80
1730.00,99.82
1729.00,99.84
1728.00,99.85
1727.00,99.86
1726.00,99.85
1725.00,99.84
1724.00,99.85
1723.00,99.85
1722.00,99.85
1721.00,99.84
1720.00,99.86
1719.00,99.88
1718.00,99.89
1717.00,99.89
1716.00,99.89
1715.00,99.88
1714.00,99.86
1713.00,99.85
1712.00,99.86
1711.00,99.85
1710.00,99.83
1709.00,99.82
1708.00,99.83
1707.00,99.84
1706.00,99.85
1705.00,99.88
1704.00,99.89
1703.00,99.82
1702.00,99.76
1701.00,99.79
1700.00,99.82
1699.00,99.82
1698.00,99.83
1697.00,99.84
1696.00,99.85
1695.00,99.84
1694.00,99.84
1693.00,99.86
1692.00,99.87
1691.00,99.86
1690.00,99.86
1689.00,99.87
1688.00,99.88
1687.00,99.89
1686.00,99.94
1685.00,99.99
1684.00,99.97
1683.00,99.92
1682.00,99.90
1681.00,99.89
1680.00,99.87
1679.00,99.87
1678.00,99.86
1677.00,99.85
1676.00,99.84
1675.00,99.85
1674.00,99.86
1673.00,99.86
1672.00,99.83
1671.00,99.79
1670.00,99.79
1669.00,99.81
1668.00,99.83
1667.00,99.86
1666.00,99.88
1665.00,99.88
1664.00,99.87
1663.00,99.86
1662.00,99.87
1661.00,99.88
1660.00,99.88
1659.00,99.89
1658.00,99.91
1657.00,99.91
1656.00,99.86
1655.00,99.85
1654.00,99.90
1653.00,99.86
1652.00,99.77
1651.00,99.78
1650.00,99.85
1649.00,99.86
1648.00,99.84
1647.00,99.85
1646.00,99.85
1645.00,99.85
1644.00,99.85
1643.00,99.86
1642.00,99.86
1641.00,99.85
1640.00,99.85
1639.00,99.83
1638.00,99.81
1637.00,99.81
1636.00,99.82
1635.00,99.84
1634.00,99.85
1633.00,99.88
1632.00,99.89
1631.00,99.87
1630.00,99.85
1629.00,99.84
1628.00,99.84
1627.00,99.85
1626.00,99.86
1625.00,99.86
1624.00,99.85
1623.00,99.84
1622.00,99.86
1621.00,99.89
1620.00,99.88
1619.00,99.85
1618.00,99.82
1617.00,99.82
1616.00,99.81
1615.00,99.83
1614.00,99.88
1613.00,99.90
1612.00,99.88
1611.00,99.85
1610.00,99.85
1609.00,99.85
1608.00,99.85
1607.00,99.86
1606.00,99.87
1605.00,99.88
1604.00,99.86
1603.00,99.86
1602.00,99.87
1601.00,99.89
1600.00,99.89
1599.00,99.89
1598.00,99.89
1597.00,99.89
1596.00,99.87
1595.00,99.86
1594.00,99.88
1593.00,99.89
1592.00,99.88
1591.00,99.87
1590.00,99.88
1589.00,99.89
1588.00,99.90
1587.00,99.90
1586.00,99.92
1585.00,99.92
1584.00,99.91
1583.00,99.91
1582.00,99.93
1581.00,99.94
1580.00,99.94
1579.00,99.91
1578.00,99.88
1577.00,99.87
1576.00,99.85
1575.00,99.87
1574.00,99.92
1573.00,99.95
1572.00,99.92
1571.00,99.89
1570.00,99.90
1569.00,99.90
1568.00,99.89
1567.00,99.88
1566.00,99.88
1565.00,99.88
1564.00,99.88
1563.00,99.88
1562.00,99.90
1561.00,100.00
1560.00,100.09
1559.00,100.05
1558.00,99.94
1557.00,99.88
1556.00,99.89
1555.00,99.92
1554.00,99.93
1553.00,99.92
1552.00,99.91
1551.00,99.90
1550.00,99.91
1549.00,99.91
1548.00,99.92
1547.00,99.93
1546.00,99.95
1545.00,99.93
1544.00,99.89
1543.00,99.86
1542.00,99.88
1541.00,99.94
1540.00,99.97
1539.00,99.93
1538.00,99.89
1537.00,99.91
1536.00,99.93
1535.00,99.93
1534.00,99.92
1533.00,99.92
1532.00,99.92
1531.00,99.90
1530.00,99.89
1529.00,99.88
1528.00,99.90
1527.00,99.91
1526.00,99.92
1525.00,99.90
1524.00,99.86
1523.00,99.81
1522.00,99.80
1521.00,99.82
1520.00,99.86
1519.00,99.89
1518.00,99.90
1517.00,99.90
1516.00,99.91
1515.00,99.92
1514.00,99.92
1513.00,99.91
1512.00,99.93
1511.00,99.95
1510.00,99.93
1509.00,99.91
1508.00,99.92
1507.00,99.96
1506.00,99.94
1505.00,99.87
1504.00,99.86
1503.00,99.89
1502.00,99.89
1501.00,99.88
1500.00,99.88
1499.00,99.89
1498.00,99.89
1497.00,99.89
1496.00,99.89
1495.00,99.90
1494.00,99.90
1493.00,99.90
1492.00,99.91
1491.00,99.92
1490.00,99.91
1489.00,99.91
1488.00,99.92
1487.00,99.92
1486.00,99.91
1485.00,99.92
1484.00,99.92
1483.00,99.91
1482.00,99.90
1481.00,99.91
1480.00,99.93
1479.00,99.94
1478.00,99.94
1477.00,99.96
1476.00,99.98
1475.00,99.98
1474.00,99.99
1473.00,99.98
1472.00,99.97
1471.00,99.95
1470.00,99.94
1469.00,99.94
1468.00,99.94
1467.00,99.93
1466.00,99.92
1465.00,99.92
1464.00,99.92
1463.00,99.93
1462.00,99.93
1461.00,99.91
1460.00,99.88
1459.00,99.84
1458.00,99.82
1457.00,99.80
1456.00,99.79
1455.00,99.82
1454.00,99.88
1453.00,99.90
1452.00,99.90
1451.00,99.90
1450.00,99.90
1449.00,99.90
1448.00,99.90
1447.00,99.91
1446.00,99.91
1445.00,99.89
1444.00,99.89
1443.00,99.89
1442.00,99.90
1441.00,99.89
1440.00,99.87
1439.00,99.85
1438.00,99.84
1437.00,99.83
1436.00,99.83
1435.00,99.85
1434.00,99.87
1433.00,99.87
1432.00,99.86
1431.00,99.87
1430.00,99.87
1429.00,99.86
1428.00,99.85
1427.00,99.86
1426.00,99.85
1425.00,99.82
1424.00,99.81
1423.00,99.83
1422.00,99.83
1421.00,99.82
1420.00,99.81
1419.00,99.83
1418.00,99.84
1417.00,99.85
1416.00,99.86
1415.00,99.87
1414.00,99.88
1413.00,99.87
1412.00,99.86
1411.00,99.87
1410.00,99.88
1409.00,99.87
1408.00,99.87
1407.00,99.87
1406.00,99.88
1405.00,99.88
1404.00,99.87
1403.00,99.87
1402.00,99.87
1401.00,99.86
1400.00,99.85
1399.00,99.86
1398.00,99.87
1397.00,99.87
1396.00,99.87
1395.00,99.89
1394.00,99.89
1393.00,99.87
1392.00,99.85
1391.00,99.84
1390.00,99.85
1389.00,99.85
1388.00,99.85
1387.00,99.84
1386.00,99.83
1385.00,99.82
1384.00,99.81
1383.00,99.81
1382.00,99.82
1381.00,99.82
1380.00,99.81
1379.00,99.81
1378.00,99.81
1377.00,99.80
1376.00,99.79
1375.00,99.79
1374.00,99.81
1373.00,99.81
1372.00,99.81
1371.00,99.79
1370.00,99.79
1369.00,99.79
1368.00,99.79
1367.00,99.80
1366.00,99.81
1365.00,99.82
1364.00,99.82
1363.00,99.83
1362.00,99.84
1361.00,99.83
1360.00,99.82
1359.00,99.81
1358.00,99.81
1357.00,99.81
1356.00,99.81
1355.00,99.82
1354.00,99.82
1353.00,99.82
1352.00,99.81
1351.00,99.81
1350.00,99.81
1349.00,99.81
1348.00,99.81
1347.00,99.81
1346.00,99.81
1345.00,99.81
1344.00,99.81
1343.00,99.81
1342.00,99.81
1341.00,99.81
1340.00,99.81
1339.00,99.81
1338.00,99.82
1337.00,99.82
1336.00,99.82
1335.00,99.82
1334.00,99.81
1333.00,99.81
1332.00,99.80
1331.00,99.81
1330.00,99.81
1329.00,99.80
1328.00,99.80
1327.00,99.79
1326.00,99.79
1325.00,99.79
1324.00,99.79
1323.00,99.80
1322.00,99.79
1321.00,99.78
1320.00,99.77
1319.00,99.77
1318.00,99.78
1317.00,99.79
1316.00,99.80
1315.00,99.80
1314.00,99.80
1313.00,99.81
1312.00,99.81
1311.00,99.81
1310.00,99.81
1309.00,99.81
1308.00,99.81
1307.00,99.81
1306.00,99.82
1305.00,99.82
1304.00,99.82
1303.00,99.83
1302.00,99.83
1301.00,99.82
1300.00,99.82
1299.00,99.82
1298.00,99.83
1297.00,99.83
1296.00,99.82
1295.00,99.82
1294.00,99.83
1293.00,99.82
1292.00,99.82
1291.00,99.82
1290.00,99.82
1289.00,99.82
1288.00,99.82
1287.00,99.82
1286.00,99.82
1285.00,99.82
1284.00,99.83
1283.00,99.83
1282.00,99.83
1281.00,99.82
1280.00,99.82
1279.00,99.81
1278.00,99.81
1277.00,99.81
1276.00,99.81
1275.00,99.81
1274.00,99.81
1273.00,99.80
1272.00,99.79
1271.00,99.80
1270.00,99.80
1269.00,99.81
1268.00,99.80
1267.00,99.80
1266.00,99.80
1265.00,99.78
1264.00,99.77
1263.00,99.77
1262.00,99.77
1261.00,99.77
1260.00,99.78
1259.00,99.79
1258.00,99.80
1257.00,99.80
1256.00,99.80
1255.00,99.81
1254.00,99.81
1253.00,99.81
1252.00,99.81
1251.00,99.80
1250.00,99.80
1249.00,99.79
1248.00,99.80
1247.00,99.81
1246.00,99.81
1245.00,99.81
1244.00,99.80
1243.00,99.79
1242.00,99.79
1241.00,99.80
1240.00,99.80
1239.00,99.81
1238.00,99.80
1237.00,99.79
1236.00,99.78
1235.00,99.78
1234.00,99.79
1233.00,99.79
1232.00,99.80
1231.00,99.80
1230.00,99.80
1229.00,99.80
1228.00,99.80
1227.00,99.81
1226.00,99.82
1225.00,99.82
1224.00,99.82
1223.00,99.82
1222.00,99.82
1221.00,99.82
1220.00,99.81
1219.00,99.81
1218.00,99.80
1217.00,99.80
1216.00,99.79
1215.00,99.80
1214.00,99.81
1213.00,99.82
1212.00,99.82
1211.00,99.82
1210.00,99.82
1209.00,99.83
1208.00,99.83
1207.00,99.83
1206.00,99.83
1205.00,99.83
1204.00,99.83
1203.00,99.82
1202.00,99.82
1201.00,99.82
1200.00,99.82
1199.00,99.83
1198.00,99.84
1197.00,99.84
1196.00,99.84
1195.00,99.83
1194.00,99.84
1193.00,99.84
1192.00,99.84
1191.00,99.84
1190.00,99.84
1189.00,99.84
1188.00,99.84
1187.00,99.84
1186.00,99.85
1185.00,99.85
1184.00,99.85
1183.00,99.86
1182.00,99.86
1181.00,99.85
1180.00,99.85
1179.00,99.86
1178.00,99.87
1177.00,99.86
1176.00,99.85
1175.00,99.84
1174.00,99.84
1173.00,99.83
1172.00,99.83
1171.00,99.83
1170.00,99.83
1169.00,99.82
1168.00,99.81
1167.00,99.80
1166.00,99.79
1165.00,99.77
1164.00,99.76
1163.00,99.76
1162.00,99.76
1161.00,99.76
1160.00,99.77
1159.00,99.78
1158.00,99.79
1157.00,99.79
1156.00,99.79
1155.00,99.79
1154.00,99.79
1153.00,99.80
1152.00,99.80
1151.00,99.80
1150.00,99.81
1149.00,99.81
1148.00,99.81
1147.00,99.81
1146.00,99.82
1145.00,99.82
1144.00,99.82
1143.00,99.81
1142.00,99.81
1141.00,99.81
1140.00,99.81
1139.00,99.82
1138.00,99.83
1137.00,99.83
1136.00,99.83
1135.00,99.83
1134.00,99.83
1133.00,99.84
1132.00,99.85
1131.00,99.85
1130.00,99.85
1129.00,99.84
1128.00,99.83
1127.00,99.83
1126.00,99.83
1125.00,99.83
1124.00,99.82
1123.00,99.81
1122.00,99.81
1121.00,99.81
1120.00,99.80
1119.00,99.80
1118.00,99.79
1117.00,99.78
1116.00,99.77
1115.00,99.77
1114.00,99.77
1113.00,99.76
1112.00,99.76
1111.00,99.76
1110.00,99.77
1109.00,99.78
1108.00,99.79
1107.00,99.79
1106.00,99.80
1105.00,99.79
1104.00,99.79
1103.00,99.79
1102.00,99.79
1101.00,99.79
1100.00,99.79
1099.00,99.79
1098.00,99.79
1097.00,99.78
1096.00,99.76
1095.00,99.75
1094.00,99.75
1093.00,99.76
1092.00,99.77
1091.00,99.78
1090.00,99.78
1089.00,99.78
1088.00,99.78
1087.00,99.79
1086.00,99.80
1085.00,99.82
1084.00,99.82
1083.00,99.83
1082.00,99.84
1081.00,99.83
1080.00,99.82
1079.00,99.81
1078.00,99.81
1077.00,99.81
1076.00,99.81
1075.00,99.82
1074.00,99.83
1073.00,99.83
1072.00,99.83
1071.00,99.84
1070.00,99.85
1069.00,99.86
1068.00,99.85
1067.00,99.85
1066.00,99.84
1065.00,99.82
1064.00,99.78
1063.00,99.75
1062.00,99.72
1061.00,99.69
1060.00,99.67
1059.00,99.67
1058.00,99.68
1057.00,99.69
1056.00,99.69
1055.00,99.71
1054.00,99.73
1053.00,99.75
1052.00,99.76
1051.00,99.77
1050.00,99.78
1049.00,99.80
1048.00,99.81
1047.00,99.83
1046.00,99.85
1045.00,99.84
1044.00,99.81
1043.00,99.80
1042.00,99.79
1041.00,99.78
1040.00,99.79
1039.00,99.82
1038.00,99.85
1037.00,99.87
1036.00,99.87
1035.00,99.84
1034.00,99.81
1033.00,99.76
1032.00,99.72
1031.00,99.70
1030.00,99.68
1029.00,99.65
1028.00,99.62
1027.00,99.61
1026.00,99.64
1025.00,99.71
1024.00,99.80
1023.00,99.85
1022.00,99.85
1021.00,99.81
1020.00,99.79
1019.00,99.81
1018.00,99.84
1017.00,99.84
1016.00,99.80
1015.00,99.77
1014.00,99.74
1013.00,99.71
1012.00,99.69
1011.00,99.72
1010.00,99.77
1009.00,99.79
1008.00,99.77
1007.00,99.74
1006.00,99.72
1005.00,99.72
1004.00,99.74
1003.00,99.78
1002.00,99.80
1001.00,99.80
1000.00,99.78
