Created as New Dataset,Sample 001 By Administrator Date Thursday, October 16 2025
cm-1,%T
4000.00,98.58
3999.00,98.58
3998.00,98.58
3997.00,98.58
3996.00,98.59
3995.00,98.59
3994.00,98.60
3993.00,98.60
3992.00,98.60
3991.00,98.60
3990.00,98.61
3989.00,98.62
3988.00,98.62
3987.00,98.62
3986.00,98.61
3985.00,98.61
3984.00,98.61
3983.00,98.60
3982.00,98.60
3981.00,98.61
3980.00,98.62
3979.00,98.62
3978.00,98.62
3977.00,98.63
3976.00,98.62
3975.00,98.62
3974.00,98.61
3973.00,98.61
3972.00,98.61
3971.00,98.61
3970.00,98.61
3969.00,98.61
3968.00,98.61
3967.00,98.61
3966.00,98.60
3965.00,98.60
3964.00,98.60
3963.00,98.61
3962.00,98.62
3961.00,98.63
3960.00,98.62
3959.00,98.61
3958.00,98.60
3957.00,98.61
3956.00,98.61
3955.00,98.61
3954.00,98.60
3953.00,98.60
3952.00,98.60
3951.00,98.60
3950.00,98.62
3949.00,98.65
3948.00,98.68
3947.00,98.69
3946.00,98.67
3945.00,98.62
3944.00,98.58
3943.00,98.58
3942.00,98.60
3941.00,98.62
3940.00,98.61
3939.00,98.61
3938.00,98.63
3937.00,98.65
3936.00,98.67
3935.00,98.67
3934.00,98.67
3933.00,98.66
3932.00,98.64
3931.00,98.61
3930.00,98.58
3929.00,98.59
3928.00,98.60
3927.00,98.58
3926.00,98.55
3925.00,98.57
3924.00,98.63
3923.00,98.65
3922.00,98.65
3921.00,98.67
3920.00,98.70
3919.00,98.72
3918.00,98.70
3917.00,98.68
3916.00,98.68
3915.00,98.67
3914.00,98.64
3913.00,98.61
3912.00,98.62
3911.00,98.62
3910.00,98.62
3909.00,98.62
3908.00,98.62
3907.00,98.60
3906.00,98.61
3905.00,98.68
3904.00,98.83
3903.00,98.93
3902.00,98.91
3901.00,98.82
3900.00,98.74
3899.00,98.72
3898.00,98.72
3897.00,98.70
3896.00,98.69
3895.00,98.69
3894.00,98.68
3893.00,98.63
3892.00,98.61
3891.00,98.68
3890.00,98.79
3889.00,98.85
3888.00,98.83
3887.00,98.80
3886.00,98.81
3885.00,98.82
3884.00,98.77
3883.00,98.65
3882.00,98.56
3881.00,98.58
3880.00,98.68
3879.00,98.76
3878.00,98.76
3877.00,98.69
3876.00,98.62
3875.00,98.62
3874.00,98.71
3873.00,98.78
3872.00,98.76
3871.00,98.73
3870.00,98.81
3869.00,98.91
3868.00,98.89
3867.00,98.76
3866.00,98.72
3865.00,98.77
3864.00,98.79
3863.00,98.74
3862.00,98.73
3861.00,98.78
3860.00,98.79
3859.00,98.75
3858.00,98.70
3857.00,98.68
3856.00,98.72
3855.00,98.78
3854.00,98.83
3853.00,98.89
3852.00,98.90
3851.00,98.85
3850.00,98.82
3849.00,98.84
3848.00,98.85
3847.00,98.80
3846.00,98.74
3845.00,98.70
3844.00,98.69
3843.00,98.71
3842.00,98.75
3841.00,98.73
3840.00,98.70
3839.00,98.70
3838.00,98.71
3837.00,98.71
3836.00,98.71
3835.00,98.73
3834.00,98.74
3833.00,98.74
3832.00,98.75
3831.00,98.77
3830.00,98.78
3829.00,98.72
3828.00,98.66
3827.00,98.66
3826.00,98.76
3825.00,98.85
3824.00,98.84
3823.00,98.78
3822.00,98.75
3821.00,98.82
3820.00,98.90
3819.00,98.88
3818.00,98.80
3817.00,98.78
3816.00,98.84
3815.00,98.86
3814.00,98.79
3813.00,98.70
3812.00,98.71
3811.00,98.80
3810.00,98.86
3809.00,98.83
3808.00,98.81
3807.00,98.87
3806.00,98.96
3805.00,98.95
3804.00,98.84
3803.00,98.77
3802.00,98.79
3801.00,98.82
3800.00,98.80
3799.00,98.72
3798.00,98.68
3797.00,98.72
3796.00,98.77
3795.00,98.76
3794.00,98.70
3793.00,98.67
3792.00,98.67
3791.00,98.68
3790.00,98.68
3789.00,98.66
3788.00,98.66
3787.00,98.65
3786.00,98.64
3785.00,98.64
3784.00,98.67
3783.00,98.69
3782.00,98.66
3781.00,98.62
3780.00,98.62
3779.00,98.67
3778.00,98.71
3777.00,98.69
3776.00,98.67
3775.00,98.70
3774.00,98.76
3773.00,98.76
3772.00,98.72
3771.00,98.72
3770.00,98.77
3769.00,98.79
3768.00,98.75
3767.00,98.71
3766.00,98.72
3765.00,98.77
3764.00,98.81
3763.00,98.79
3762.00,98.75
3761.00,98.74
3760.00,98.76
3759.00,98.76
3758.00,98.78
3757.00,98.84
3756.00,98.89
3755.00,98.93
3754.00,99.01
3753.00,99.15
3752.00,99.28
3751.00,99.30
3750.00,99.29
3749.00,99.30
3748.00,99.25
3747.00,99.07
3746.00,98.91
3745.00,98.89
3744.00,98.98
3743.00,99.02
3742.00,99.00
3741.00,99.02
3740.00,99.15
3739.00,99.24
3738.00,99.20
3737.00,99.13
3736.00,99.10
3735.00,99.07
3734.00,99.01
3733.00,98.98
3732.00,98.98
3731.00,98.98
3730.00,98.94
3729.00,98.90
3728.00,98.89
3727.00,98.90
3726.00,98.89
3725.00,98.84
3724.00,98.78
3723.00,98.75
3722.00,98.76
3721.00,98.77
3720.00,98.77
3719.00,98.75
3718.00,98.76
3717.00,98.82
3716.00,98.88
3715.00,98.93
3714.00,98.98
3713.00,99.03
3712.00,99.01
3711.00,98.92
3710.00,98.86
3709.00,98.83
3708.00,98.81
3707.00,98.80
3706.00,98.80
3705.00,98.78
3704.00,98.73
3703.00,98.68
3702.00,98.67
3701.00,98.70
3700.00,98.72
3699.00,98.71
3698.00,98.71
3697.00,98.74
3696.00,98.77
3695.00,98.76
3694.00,98.76
3693.00,98.78
3692.00,98.80
3691.00,98.81
3690.00,98.83
3689.00,98.89
3688.00,98.92
3687.00,98.90
3686.00,98.85
3685.00,98.82
3684.00,98.83
3683.00,98.85
3682.00,98.81
3681.00,98.78
3680.00,98.84
3679.00,98.97
3678.00,99.06
3677.00,99.08
3676.00,99.07
3675.00,99.09
3674.00,99.08
3673.00,99.02
3672.00,98.98
3671.00,99.00
3670.00,98.99
3669.00,98.94
3668.00,98.87
3667.00,98.83
3666.00,98.81
3665.00,98.81
3664.00,98.80
3663.00,98.77
3662.00,98.74
3661.00,98.76
3660.00,98.82
3659.00,98.86
3658.00,98.87
3657.00,98.87
3656.00,98.91
3655.00,98.95
3654.00,98.93
3653.00,98.92
3652.00,99.00
3651.00,99.13
3650.00,99.17
3649.00,99.08
3648.00,98.99
3647.00,98.95
3646.00,98.92
3645.00,98.87
3644.00,98.83
3643.00,98.80
3642.00,98.77
3641.00,98.74
3640.00,98.72
3639.00,98.73
3638.00,98.75
3637.00,98.77
3636.00,98.78
3635.00,98.79
3634.00,98.85
3633.00,98.95
3632.00,99.04
3631.00,99.10
3630.00,99.14
3629.00,99.15
3628.00,99.12
3627.00,99.04
3626.00,98.95
3625.00,98.92
3624.00,98.92
3623.00,98.90
3622.00,98.83
3621.00,98.77
3620.00,98.76
3619.00,98.78
3618.00,98.83
3617.00,98.87
3616.00,98.88
3615.00,98.88
3614.00,98.91
3613.00,98.98
3612.00,99.04
3611.00,99.06
3610.00,99.06
3609.00,99.03
3608.00,98.97
3607.00,98.90
3606.00,98.84
3605.00,98.81
3604.00,98.79
3603.00,98.77
3602.00,98.75
3601.00,98.76
3600.00,98.78
3599.00,98.78
3598.00,98.77
3597.00,98.78
3596.00,98.79
3595.00,98.79
3594.00,98.81
3593.00,98.86
3592.00,98.91
3591.00,98.94
3590.00,98.95
3589.00,98.95
3588.00,98.93
3587.00,98.90
3586.00,98.87
3585.00,98.86
3584.00,98.84
3583.00,98.81
3582.00,98.79
3581.00,98.78
3580.00,98.76
3579.00,98.73
3578.00,98.72
3577.00,98.73
3576.00,98.74
3575.00,98.74
3574.00,98.76
3573.00,98.78
3572.00,98.82
3571.00,98.86
3570.00,98.90
3569.00,98.93
3568.00,98.94
3567.00,98.92
3566.00,98.89
3565.00,98.86
3564.00,98.83
3563.00,98.81
3562.00,98.81
3561.00,98.80
3560.00,98.79
3559.00,98.78
3558.00,98.77
3557.00,98.78
3556.00,98.79
3555.00,98.78
3554.00,98.77
3553.00,98.77
3552.00,98.79
3551.00,98.80
3550.00,98.82
3549.00,98.84
3548.00,98.86
3547.00,98.86
3546.00,98.85
3545.00,98.83
3544.00,98.81
3543.00,98.79
3542.00,98.77
3541.00,98.77
3540.00,98.78
3539.00,98.77
3538.00,98.77
3537.00,98.77
3536.00,98.78
3535.00,98.78
3534.00,98.78
3533.00,98.79
3532.00,98.79
3531.00,98.78
3530.00,98.77
3529.00,98.78
3528.00,98.80
3527.00,98.82
3526.00,98.84
3525.00,98.83
3524.00,98.82
3523.00,98.81
3522.00,98.80
3521.00,98.79
3520.00,98.79
3519.00,98.78
3518.00,98.78
3517.00,98.79
3516.00,98.79
3515.00,98.77
3514.00,98.77
3513.00,98.77
3512.00,98.77
3511.00,98.77
3510.00,98.78
3509.00,98.80
3508.00,98.82
3507.00,98.82
3506.00,98.81
3505.00,98.81
3504.00,98.80
3503.00,98.80
3502.00,98.80
3501.00,98.81
3500.00,98.81
3499.00,98.80
3498.00,98.80
3497.00,98.80
3496.00,98.80
3495.00,98.80
3494.00,98.79
3493.00,98.80
3492.00,98.80
3491.00,98.80
3490.00,98.80
3489.00,98.80
3488.00,98.80
3487.00,98.80
3486.00,98.79
3485.00,98.79
3484.00,98.79
3483.00,98.78
3482.00,98.79
3481.00,98.80
3480.00,98.81
3479.00,98.80
3478.00,98.80
3477.00,98.79
3476.00,98.79
3475.00,98.78
3474.00,98.78
3473.00,98.78
3472.00,98.78
3471.00,98.79
3470.00,98.80
3469.00,98.81
3468.00,98.81
3467.00,98.81
3466.00,98.80
3465.00,98.79
3464.00,98.78
3463.00,98.77
3462.00,98.78
3461.00,98.79
3460.00,98.79
3459.00,98.79
3458.00,98.79
3457.00,98.79
3456.00,98.80
3455.00,98.80
3454.00,98.80
3453.00,98.80
3452.00,98.80
3451.00,98.80
3450.00,98.79
3449.00,98.78
3448.00,98.78
3447.00,98.79
3446.00,98.80
3445.00,98.81
3444.00,98.81
3443.00,98.81
3442.00,98.81
3441.00,98.82
3440.00,98.82
3439.00,98.82
3438.00,98.82
3437.00,98.82
3436.00,98.81
3435.00,98.82
3434.00,98.82
3433.00,98.82
3432.00,98.82
3431.00,98.82
3430.00,98.81
3429.00,98.81
3428.00,98.81
3427.00,98.81
3426.00,98.81
3425.00,98.81
3424.00,98.82
3423.00,98.81
3422.00,98.81
3421.00,98.81
3420.00,98.82
3419.00,98.81
3418.00,98.81
3417.00,98.81
3416.00,98.81
3415.00,98.81
3414.00,98.82
3413.00,98.82
3412.00,98.82
3411.00,98.81
3410.00,98.81
3409.00,98.81
3408.00,98.82
3407.00,98.82
3406.00,98.82
3405.00,98.82
3404.00,98.83
3403.00,98.83
3402.00,98.83
3401.00,98.84
3400.00,98.84
3399.00,98.83
3398.00,98.83
3397.00,98.83
3396.00,98.84
3395.00,98.84
3394.00,98.84
3393.00,98.84
3392.00,98.84
3391.00,98.83
3390.00,98.83
3389.00,98.83
3388.00,98.83
3387.00,98.84
3386.00,98.84
3385.00,98.84
3384.00,98.84
3383.00,98.83
3382.00,98.83
3381.00,98.82
3380.00,98.82
3379.00,98.82
3378.00,98.82
3377.00,98.82
3376.00,98.82
3375.00,98.82
3374.00,98.82
3373.00,98.82
3372.00,98.83
3371.00,98.83
3370.00,98.83
3369.00,98.83
3368.00,98.82
3367.00,98.81
3366.00,98.81
3365.00,98.81
3364.00,98.82
3363.00,98.82
3362.00,98.83
3361.00,98.83
3360.00,98.83
3359.00,98.83
3358.00,98.83
3357.00,98.83
3356.00,98.83
3355.00,98.83
3354.00,98.82
3353.00,98.83
3352.00,98.83
3351.00,98.83
3350.00,98.83
3349.00,98.83
3348.00,98.82
3347.00,98.82
3346.00,98.82
3345.00,98.83
3344.00,98.84
3343.00,98.83
3342.00,98.83
3341.00,98.83
3340.00,98.83
3339.00,98.83
3338.00,98.83
3337.00,98.83
3336.00,98.83
3335.00,98.83
3334.00,98.83
3333.00,98.83
3332.00,98.83
3331.00,98.82
3330.00,98.82
3329.00,98.83
3328.00,98.83
3327.00,98.83
3326.00,98.83
3325.00,98.83
3324.00,98.83
3323.00,98.83
3322.00,98.83
3321.00,98.83
3320.00,98.83
3319.00,98.83
3318.00,98.82
3317.00,98.82
3316.00,98.83
3315.00,98.83
3314.00,98.83
3313.00,98.84
3312.00,98.84
3311.00,98.84
3310.00,98.84
3309.00,98.85
3308.00,98.85
3307.00,98.85
3306.00,98.85
3305.00,98.84
3304.00,98.84
3303.00,98.84
3302.00,98.83
3301.00,98.83
3300.00,98.83
3299.00,98.83
3298.00,98.84
3297.00,98.85
3296.00,98.86
3295.00,98.86
3294.00,98.86
3293.00,98.86
3292.00,98.86
3291.00,98.85
3290.00,98.84
3289.00,98.84
3288.00,98.83
3287.00,98.83
3286.00,98.82
3285.00,98.82
3284.00,98.83
3283.00,98.83
3282.00,98.84
3281.00,98.84
3280.00,98.85
3279.00,98.85
3278.00,98.85
3277.00,98.86
3276.00,98.86
3275.00,98.86
3274.00,98.86
3273.00,98.85
3272.00,98.85
3271.00,98.84
3270.00,98.84
3269.00,98.84
3268.00,98.84
3267.00,98.84
3266.00,98.84
3265.00,98.85
3264.00,98.85
3263.00,98.86
3262.00,98.86
3261.00,98.86
3260.00,98.86
3259.00,98.85
3258.00,98.85
3257.00,98.85
3256.00,98.84
3255.00,98.83
3254.00,98.83
3253.00,98.84
3252.00,98.84
3251.00,98.84
3250.00,98.84
3249.00,98.84
3248.00,98.85
3247.00,98.85
3246.00,98.85
3245.00,98.86
3244.00,98.86
3243.00,98.85
3242.00,98.85
3241.00,98.85
3240.00,98.85
3239.00,98.84
3238.00,98.84
3237.00,98.84
3236.00,98.84
3235.00,98.84
3234.00,98.84
3233.00,98.85
3232.00,98.85
3231.00,98.85
3230.00,98.85
3229.00,98.85
3228.00,98.85
3227.00,98.85
3226.00,98.85
3225.00,98.85
3224.00,98.86
3223.00,98.86
3222.00,98.86
3221.00,98.86
3220.00,98.86
3219.00,98.86
3218.00,98.85
3217.00,98.86
3216.00,98.86
3215.00,98.86
3214.00,98.86
3213.00,98.86
3212.00,98.86
3211.00,98.86
3210.00,98.86
3209.00,98.86
3208.00,98.86
3207.00,98.86
3206.00,98.85
3205.00,98.86
3204.00,98.86
3203.00,98.86
3202.00,98.85
3201.00,98.85
3200.00,98.86
3199.00,98.86
3198.00,98.86
3197.00,98.86
3196.00,98.86
3195.00,98.86
3194.00,98.86
3193.00,98.86
3192.00,98.86
3191.00,98.86
3190.00,98.86
3189.00,98.87
3188.00,98.87
3187.00,98.86
3186.00,98.86
3185.00,98.86
3184.00,98.86
3183.00,98.85
3182.00,98.85
3181.00,98.85
3180.00,98.85
3179.00,98.85
3178.00,98.85
3177.00,98.86
3176.00,98.86
3175.00,98.86
3174.00,98.85
3173.00,98.85
3172.00,98.85
3171.00,98.86
3170.00,98.86
3169.00,98.87
3168.00,98.86
3167.00,98.86
3166.00,98.86
3165.00,98.86
3164.00,98.87
3163.00,98.87
3162.00,98.87
3161.00,98.87
3160.00,98.87
3159.00,98.87
3158.00,98.86
3157.00,98.86
3156.00,98.86
3155.00,98.86
3154.00,98.86
3153.00,98.87
3152.00,98.87
3151.00,98.87
3150.00,98.86
3149.00,98.86
3148.00,98.86
3147.00,98.86
3146.00,98.86
3145.00,98.86
3144.00,98.87
3143.00,98.86
3142.00,98.86
3141.00,98.86
3140.00,98.87
3139.00,98.87
3138.00,98.87
3137.00,98.87
3136.00,98.87
3135.00,98.87
3134.00,98.87
3133.00,98.87
3132.00,98.87
3131.00,98.87
3130.00,98.87
3129.00,98.87
3128.00,98.87
3127.00,98.87
3126.00,98.87
3125.00,98.87
3124.00,98.87
3123.00,98.87
3122.00,98.87
3121.00,98.88
3120.00,98.87
3119.00,98.87
3118.00,98.87
3117.00,98.88
3116.00,98.89
3115.00,98.89
3114.00,98.88
3113.00,98.88
3112.00,98.87
3111.00,98.87
3110.00,98.87
3109.00,98.87
3108.00,98.88
3107.00,98.88
3106.00,98.88
3105.00,98.88
3104.00,98.88
3103.00,98.88
3102.00,98.88
3101.00,98.88
3100.00,98.89
3099.00,98.89
3098.00,98.89
3097.00,98.89
3096.00,98.89
3095.00,98.89
3094.00,98.89
3093.00,98.89
3092.00,98.89
3091.00,98.89
3090.00,98.89
3089.00,98.89
3088.00,98.89
3087.00,98.88
3086.00,98.88
3085.00,98.88
3084.00,98.88
3083.00,98.87
3082.00,98.88
3081.00,98.88
3080.00,98.89
3079.00,98.88
3078.00,98.88
3077.00,98.88
3076.00,98.87
3075.00,98.87
3074.00,98.87
3073.00,98.88
3072.00,98.88
3071.00,98.88
3070.00,98.89
3069.00,98.89
3068.00,98.89
3067.00,98.89
3066.00,98.89
3065.00,98.89
3064.00,98.88
3063.00,98.88
3062.00,98.87
3061.00,98.88
3060.00,98.88
3059.00,98.88
3058.00,98.89
3057.00,98.89
3056.00,98.89
3055.00,98.89
3054.00,98.89
3053.00,98.88
3052.00,98.88
3051.00,98.88
3050.00,98.89
3049.00,98.89
3048.00,98.88
3047.00,98.88
3046.00,98.87
3045.00,98.88
3044.00,98.88
3043.00,98.88
3042.00,98.88
3041.00,98.88
3040.00,98.88
3039.00,98.88
3038.00,98.88
3037.00,98.89
3036.00,98.89
3035.00,98.90
3034.00,98.90
3033.00,98.90
3032.00,98.89
3031.00,98.89
3030.00,98.89
3029.00,98.89
3028.00,98.89
3027.00,98.89
3026.00,98.88
3025.00,98.88
3024.00,98.88
3023.00,98.88
3022.00,98.89
3021.00,98.90
3020.00,98.91
3019.00,98.92
3018.00,98.93
3017.00,98.93
3016.00,98.93
3015.00,98.92
3014.00,98.91
3013.00,98.90
3012.00,98.89
3011.00,98.89
3010.00,98.89
3009.00,98.89
3008.00,98.89
3007.00,98.89
3006.00,98.89
3005.00,98.89
3004.00,98.89
3003.00,98.89
3002.00,98.89
3001.00,98.90
3000.00,98.90
2999.00,98.90
2998.00,98.90
2997.00,98.90
2996.00,98.89
2995.00,98.89
2994.00,98.89
2993.00,98.89
2992.00,98.89
2991.00,98.89
2990.00,98.90
2989.00,98.90
2988.00,98.90
2987.00,98.90
2986.00,98.90
2985.00,98.90
2984.00,98.91
2983.00,98.91
2982.00,98.91
2981.00,98.91
2980.00,98.91
2979.00,98.91
2978.00,98.90
2977.00,98.90
2976.00,98.90
2975.00,98.91
2974.00,98.91
2973.00,98.91
2972.00,98.91
2971.00,98.91
2970.00,98.91
2969.00,98.91
2968.00,98.90
2967.00,98.90
2966.00,98.90
2965.00,98.90
2964.00,98.90
2963.00,98.90
2962.00,98.91
2961.00,98.91
2960.00,98.91
2959.00,98.91
2958.00,98.91
2957.00,98.90
2956.00,98.90
2955.00,98.89
2954.00,98.89
2953.00,98.90
2952.00,98.90
2951.00,98.91
2950.00,98.91
2949.00,98.92
2948.00,98.91
2947.00,98.91
2946.00,98.91
2945.00,98.91
2944.00,98.91
2943.00,98.91
2942.00,98.91
2941.00,98.91
2940.00,98.92
2939.00,98.92
2938.00,98.92
2937.00,98.92
2936.00,98.92
2935.00,98.92
2934.00,98.92
2933.00,98.92
2932.00,98.92
2931.00,98.91
2930.00,98.91
2929.00,98.92
2928.00,98.92
2927.00,98.91
2926.00,98.91
2925.00,98.91
2924.00,98.92
2923.00,98.92
2922.00,98.92
2921.00,98.92
2920.00,98.92
2919.00,98.92
2918.00,98.92
2917.00,98.93
2916.00,98.93
2915.00,98.94
2914.00,98.94
2913.00,98.93
2912.00,98.92
2911.00,98.91
2910.00,98.91
2909.00,98.91
2908.00,98.92
2907.00,98.92
2906.00,98.91
2905.00,98.91
2904.00,98.90
2903.00,98.90
2902.00,98.90
2901.00,98.91
2900.00,98.91
2899.00,98.91
2898.00,98.91
2897.00,98.91
2896.00,98.91
2895.00,98.91
2894.00,98.91
2893.00,98.91
2892.00,98.91
2891.00,98.91
2890.00,98.91
2889.00,98.91
2888.00,98.92
2887.00,98.92
2886.00,98.92
2885.00,98.92
2884.00,98.92
2883.00,98.91
2882.00,98.92
2881.00,98.92
2880.00,98.92
2879.00,98.92
2878.00,98.92
2877.00,98.93
2876.00,98.92
2875.00,98.92
2874.00,98.92
2873.00,98.92
2872.00,98.92
2871.00,98.92
2870.00,98.92
2869.00,98.92
2868.00,98.92
2867.00,98.92
2866.00,98.92
2865.00,98.92
2864.00,98.92
2863.00,98.92
2862.00,98.92
2861.00,98.93
2860.00,98.93
2859.00,98.92
2858.00,98.92
2857.00,98.92
2856.00,98.92
2855.00,98.92
2854.00,98.92
2853.00,98.93
2852.00,98.93
2851.00,98.94
2850.00,98.94
2849.00,98.94
2848.00,98.94
2847.00,98.94
2846.00,98.94
2845.00,98.93
2844.00,98.93
2843.00,98.93
2842.00,98.93
2841.00,98.93
2840.00,98.93
2839.00,98.93
2838.00,98.93
2837.00,98.93
2836.00,98.93
2835.00,98.94
2834.00,98.94
2833.00,98.95
2832.00,98.95
2831.00,98.94
2830.00,98.93
2829.00,98.93
2828.00,98.93
2827.00,98.92
2826.00,98.92
2825.00,98.92
2824.00,98.92
2823.00,98.92
2822.00,98.93
2821.00,98.93
2820.00,98.93
2819.00,98.94
2818.00,98.94
2817.00,98.94
2816.00,98.94
2815.00,98.94
2814.00,98.93
2813.00,98.93
2812.00,98.93
2811.00,98.93
2810.00,98.94
2809.00,98.94
2808.00,98.94
2807.00,98.94
2806.00,98.94
2805.00,98.94
2804.00,98.94
2803.00,98.94
2802.00,98.94
2801.00,98.93
2800.00,98.93
2799.00,98.94
2798.00,98.94
2797.00,98.94
2796.00,98.94
2795.00,98.93
2794.00,98.93
2793.00,98.94
2792.00,98.94
2791.00,98.94
2790.00,98.95
2789.00,98.95
2788.00,98.94
2787.00,98.94
2786.00,98.94
2785.00,98.94
2784.00,98.94
2783.00,98.93
2782.00,98.93
2781.00,98.93
2780.00,98.93
2779.00,98.93
2778.00,98.94
2777.00,98.94
2776.00,98.94
2775.00,98.94
2774.00,98.94
2773.00,98.95
2772.00,98.95
2771.00,98.94
2770.00,98.94
2769.00,98.94
2768.00,98.95
2767.00,98.95
2766.00,98.95
2765.00,98.95
2764.00,98.95
2763.00,98.95
2762.00,98.95
2761.00,98.96
2760.00,98.95
2759.00,98.95
2758.00,98.95
2757.00,98.94
2756.00,98.94
2755.00,98.94
2754.00,98.94
2753.00,98.95
2752.00,98.95
2751.00,98.94
2750.00,98.94
2749.00,98.95
2748.00,98.95
2747.00,98.95
2746.00,98.95
2745.00,98.95
2744.00,98.94
2743.00,98.94
2742.00,98.93
2741.00,98.93
2740.00,98.93
2739.00,98.93
2738.00,98.94
2737.00,98.94
2736.00,98.94
2735.00,98.94
2734.00,98.95
2733.00,98.95
2732.00,98.96
2731.00,98.96
2730.00,98.96
2729.00,98.96
2728.00,98.95
2727.00,98.95
2726.00,98.95
2725.00,98.95
2724.00,98.95
2723.00,98.95
2722.00,98.95
2721.00,98.95
2720.00,98.95
2719.00,98.95
2718.00,98.95
2717.00,98.95
2716.00,98.95
2715.00,98.95
2714.00,98.95
2713.00,98.96
2712.00,98.96
2711.00,98.96
2710.00,98.96
2709.00,98.96
2708.00,98.96
2707.00,98.95
2706.00,98.95
2705.00,98.95
2704.00,98.95
2703.00,98.96
2702.00,98.96
2701.00,98.96
2700.00,98.96
2699.00,98.96
2698.00,98.95
2697.00,98.95
2696.00,98.95
2695.00,98.95
2694.00,98.96
2693.00,98.96
2692.00,98.97
2691.00,98.97
2690.00,98.97
2689.00,98.97
2688.00,98.96
2687.00,98.95
2686.00,98.95
2685.00,98.96
2684.00,98.96
2683.00,98.96
2682.00,98.97
2681.00,98.97
2680.00,98.96
2679.00,98.96
2678.00,98.97
2677.00,98.97
2676.00,98.97
2675.00,98.97
2674.00,98.97
2673.00,98.97
2672.00,98.97
2671.00,98.97
2670.00,98.97
2669.00,98.97
2668.00,98.97
2667.00,98.97
2666.00,98.97
2665.00,98.97
2664.00,98.97
2663.00,98.96
2662.00,98.96
2661.00,98.97
2660.00,98.97
2659.00,98.97
2658.00,98.97
2657.00,98.97
2656.00,98.97
2655.00,98.97
2654.00,98.97
2653.00,98.97
2652.00,98.97
2651.00,98.97
2650.00,98.97
2649.00,98.97
2648.00,98.97
2647.00,98.96
2646.00,98.96
2645.00,98.96
2644.00,98.97
2643.00,98.97
2642.00,98.97
2641.00,98.97
2640.00,98.97
2639.00,98.97
2638.00,98.97
2637.00,98.97
2636.00,98.97
2635.00,98.97
2634.00,98.97
2633.00,98.98
2632.00,98.98
2631.00,98.97
2630.00,98.97
2629.00,98.97
2628.00,98.98
2627.00,98.98
2626.00,98.99
2625.00,98.99
2624.00,98.99
2623.00,98.98
2622.00,98.98
2621.00,98.97
2620.00,98.97
2619.00,98.97
2618.00,98.97
2617.00,98.97
2616.00,98.97
2615.00,98.97
2614.00,98.97
2613.00,98.98
2612.00,98.98
2611.00,98.98
2610.00,98.99
2609.00,98.99
2608.00,98.99
2607.00,98.98
2606.00,98.98
2605.00,98.98
2604.00,98.98
2603.00,98.98
2602.00,98.99
2601.00,98.99
2600.00,98.99
2599.00,98.99
2598.00,98.99
2597.00,98.99
2596.00,98.99
2595.00,98.99
2594.00,98.98
2593.00,98.98
2592.00,98.98
2591.00,98.97
2590.00,98.97
2589.00,98.98
2588.00,98.98
2587.00,98.99
2586.00,98.99
2585.00,98.99
2584.00,98.98
2583.00,98.98
2582.00,98.98
2581.00,98.98
2580.00,98.98
2579.00,98.98
2578.00,98.98
2577.00,98.98
2576.00,98.98
2575.00,98.99
2574.00,98.99
2573.00,98.99
2572.00,98.98
2571.00,98.98
2570.00,98.98
2569.00,98.98
2568.00,98.98
2567.00,98.99
2566.00,98.99
2565.00,98.99
2564.00,98.98
2563.00,98.98
2562.00,98.99
2561.00,98.99
2560.00,98.99
2559.00,98.99
2558.00,98.99
2557.00,98.99
2556.00,98.99
2555.00,98.99
2554.00,98.99
2553.00,98.99
2552.00,98.99
2551.00,98.99
2550.00,98.99
2549.00,99.00
2548.00,99.00
2547.00,99.00
2546.00,99.00
2545.00,98.99
2544.00,98.99
2543.00,98.99
2542.00,98.99
2541.00,99.00
2540.00,99.00
2539.00,99.00
2538.00,99.00
2537.00,99.00
2536.00,98.99
2535.00,98.99
2534.00,99.00
2533.00,99.00
2532.00,99.00
2531.00,99.00
2530.00,99.01
2529.00,99.01
2528.00,99.01
2527.00,99.01
2526.00,99.01
2525.00,99.00
2524.00,99.00
2523.00,99.00
2522.00,99.00
2521.00,99.01
2520.00,99.01
2519.00,99.01
2518.00,99.00
2517.00,99.00
2516.00,98.99
2515.00,98.99
2514.00,98.99
2513.00,99.00
2512.00,99.00
2511.00,99.00
2510.00,99.00
2509.00,99.00
2508.00,99.00
2507.00,99.00
2506.00,99.01
2505.00,99.01
2504.00,99.01
2503.00,99.01
2502.00,99.01
2501.00,99.01
2500.00,99.01
2499.00,99.01
2498.00,99.01
2497.00,99.01
2496.00,99.02
2495.00,99.02
2494.00,99.02
2493.00,99.02
2492.00,99.01
2491.00,99.01
2490.00,99.01
2489.00,99.02
2488.00,99.02
2487.00,99.02
2486.00,99.02
2485.00,99.02
2484.00,99.02
2483.00,99.02
2482.00,99.02
2481.00,99.02
2480.00,99.02
2479.00,99.01
2478.00,99.01
2477.00,99.02
2476.00,99.02
2475.00,99.01
2474.00,99.01
2473.00,99.00
2472.00,99.00
2471.00,99.00
2470.00,99.00
2469.00,99.01
2468.00,99.02
2467.00,99.02
2466.00,99.02
2465.00,99.02
2464.00,99.02
2463.00,99.02
2462.00,99.02
2461.00,99.02
2460.00,99.02
2459.00,99.02
2458.00,99.02
2457.00,99.02
2456.00,99.01
2455.00,99.02
2454.00,99.02
2453.00,99.03
2452.00,99.03
2451.00,99.03
2450.00,99.02
2449.00,99.02
2448.00,99.01
2447.00,99.01
2446.00,99.02
2445.00,99.02
2444.00,99.02
2443.00,99.02
2442.00,99.02
2441.00,99.03
2440.00,99.03
2439.00,99.02
2438.00,99.02
2437.00,99.02
2436.00,99.02
2435.00,99.02
2434.00,99.02
2433.00,99.02
2432.00,99.02
2431.00,99.02
2430.00,99.02
2429.00,99.03
2428.00,99.03
2427.00,99.03
2426.00,99.03
2425.00,99.03
2424.00,99.03
2423.00,99.02
2422.00,99.02
2421.00,99.02
2420.00,99.02
2419.00,99.02
2418.00,99.03
2417.00,99.03
2416.00,99.03
2415.00,99.04
2414.00,99.04
2413.00,99.04
2412.00,99.03
2411.00,99.03
2410.00,99.03
2409.00,99.03
2408.00,99.02
2407.00,99.02
2406.00,99.02
2405.00,99.02
2404.00,99.02
2403.00,99.03
2402.00,99.03
2401.00,99.04
2400.00,99.04
2399.00,99.04
2398.00,99.04
2397.00,99.04
2396.00,99.03
2395.00,99.03
2394.00,99.03
2393.00,99.03
2392.00,99.03
2391.00,99.03
2390.00,99.04
2389.00,99.05
2388.00,99.05
2387.00,99.06
2386.00,99.07
2385.00,99.08
2384.00,99.09
2383.00,99.10
2382.00,99.10
2381.00,99.10
2380.00,99.10
2379.00,99.08
2378.00,99.07
2377.00,99.06
2376.00,99.04
2375.00,99.03
2374.00,99.03
2373.00,99.04
2372.00,99.04
2371.00,99.05
2370.00,99.06
2369.00,99.08
2368.00,99.09
2367.00,99.09
2366.00,99.09
2365.00,99.08
2364.00,99.07
2363.00,99.07
2362.00,99.09
2361.00,99.12
2360.00,99.14
2359.00,99.16
2358.00,99.16
2357.00,99.14
2356.00,99.11
2355.00,99.08
2354.00,99.06
2353.00,99.04
2352.00,99.05
2351.00,99.09
2350.00,99.12
2349.00,99.13
2348.00,99.13
2347.00,99.13
2346.00,99.14
2345.00,99.15
2344.00,99.16
2343.00,99.18
2342.00,99.21
2341.00,99.22
2340.00,99.21
2339.00,99.20
2338.00,99.18
2337.00,99.16
2336.00,99.14
2335.00,99.14
2334.00,99.14
2333.00,99.14
2332.00,99.14
2331.00,99.16
2330.00,99.16
2329.00,99.16
2328.00,99.17
2327.00,99.19
2326.00,99.20
2325.00,99.20
2324.00,99.20
2323.00,99.20
2322.00,99.20
2321.00,99.19
2320.00,99.19
2319.00,99.18
2318.00,99.17
2317.00,99.16
2316.00,99.16
2315.00,99.16
2314.00,99.16
2313.00,99.16
2312.00,99.15
2311.00,99.15
2310.00,99.15
2309.00,99.14
2308.00,99.14
2307.00,99.14
2306.00,99.13
2305.00,99.12
2304.00,99.12
2303.00,99.12
2302.00,99.13
2301.00,99.12
2300.00,99.12
2299.00,99.11
2298.00,99.11
2297.00,99.10
2296.00,99.09
2295.00,99.09
2294.00,99.09
2293.00,99.08
2292.00,99.08
2291.00,99.08
2290.00,99.07
2289.00,99.07
2288.00,99.07
2287.00,99.07
2286.00,99.08
2285.00,99.07
2284.00,99.07
2283.00,99.06
2282.00,99.06
2281.00,99.06
2280.00,99.06
2279.00,99.06
2278.00,99.06
2277.00,99.06
2276.00,99.06
2275.00,99.06
2274.00,99.06
2273.00,99.06
2272.00,99.06
2271.00,99.06
2270.00,99.07
2269.00,99.07
2268.00,99.07
2267.00,99.08
2266.00,99.08
2265.00,99.08
2264.00,99.07
2263.00,99.07
2262.00,99.07
2261.00,99.07
2260.00,99.06
2259.00,99.06
2258.00,99.06
2257.00,99.06
2256.00,99.06
2255.00,99.06
2254.00,99.06
2253.00,99.06
2252.00,99.07
2251.00,99.07
2250.00,99.08
2249.00,99.07
2248.00,99.07
2247.00,99.07
2246.00,99.07
2245.00,99.07
2244.00,99.07
2243.00,99.07
2242.00,99.07
2241.00,99.07
2240.00,99.07
2239.00,99.07
2238.00,99.08
2237.00,99.08
2236.00,99.08
2235.00,99.08
2234.00,99.08
2233.00,99.08
2232.00,99.08
2231.00,99.08
2230.00,99.08
2229.00,99.08
2228.00,99.08
2227.00,99.08
2226.00,99.08
2225.00,99.08
2224.00,99.07
2223.00,99.08
2222.00,99.08
2221.00,99.08
2220.00,99.08
2219.00,99.08
2218.00,99.08
2217.00,99.09
2216.00,99.09
2215.00,99.09
2214.00,99.08
2213.00,99.08
2212.00,99.07
2211.00,99.07
2210.00,99.07
2209.00,99.07
2208.00,99.07
2207.00,99.07
2206.00,99.08
2205.00,99.08
2204.00,99.08
2203.00,99.08
2202.00,99.09
2201.00,99.08
2200.00,99.07
2199.00,99.07
2198.00,99.07
2197.00,99.07
2196.00,99.07
2195.00,99.08
2194.00,99.09
2193.00,99.09
2192.00,99.09
2191.00,99.09
2190.00,99.09
2189.00,99.09
2188.00,99.09
2187.00,99.10
2186.00,99.10
2185.00,99.10
2184.00,99.09
2183.00,99.09
2182.00,99.09
2181.00,99.08
2180.00,99.08
2179.00,99.08
2178.00,99.08
2177.00,99.07
2176.00,99.07
2175.00,99.08
2174.00,99.08
2173.00,99.08
2172.00,99.08
2171.00,99.08
2170.00,99.08
2169.00,99.09
2168.00,99.09
2167.00,99.09
2166.00,99.10
2165.00,99.10
2164.00,99.09
2163.00,99.09
2162.00,99.09
2161.00,99.09
2160.00,99.08
2159.00,99.08
2158.00,99.08
2157.00,99.08
2156.00,99.08
2155.00,99.09
2154.00,99.09
2153.00,99.09
2152.00,99.09
2151.00,99.09
2150.00,99.09
2149.00,99.09
2148.00,99.09
2147.00,99.09
2146.00,99.09
2145.00,99.09
2144.00,99.09
2143.00,99.09
2142.00,99.10
2141.00,99.10
2140.00,99.09
2139.00,99.09
2138.00,99.09
2137.00,99.09
2136.00,99.09
2135.00,99.09
2134.00,99.09
2133.00,99.09
2132.00,99.09
2131.00,99.09
2130.00,99.09
2129.00,99.09
2128.00,99.09
2127.00,99.09
2126.00,99.10
2125.00,99.09
2124.00,99.08
2123.00,99.08
2122.00,99.09
2121.00,99.09
2120.00,99.09
2119.00,99.10
2118.00,99.10
2117.00,99.10
2116.00,99.09
2115.00,99.09
2114.00,99.09
2113.00,99.09
2112.00,99.09
2111.00,99.10
2110.00,99.10
2109.00,99.10
2108.00,99.10
2107.00,99.10
2106.00,99.10
2105.00,99.10
2104.00,99.10
2103.00,99.10
2102.00,99.11
2101.00,99.10
2100.00,99.10
2099.00,99.10
2098.00,99.10
2097.00,99.09
2096.00,99.09
2095.00,99.10
2094.00,99.11
2093.00,99.11
2092.00,99.11
2091.00,99.11
2090.00,99.11
2089.00,99.11
2088.00,99.10
2087.00,99.11
2086.00,99.11
2085.00,99.11
2084.00,99.10
2083.00,99.10
2082.00,99.11
2081.00,99.11
2080.00,99.11
2079.00,99.11
2078.00,99.11
2077.00,99.11
2076.00,99.10
2075.00,99.10
2074.00,99.11
2073.00,99.10
2072.00,99.10
2071.00,99.11
2070.00,99.11
2069.00,99.11
2068.00,99.11
2067.00,99.10
2066.00,99.10
2065.00,99.10
2064.00,99.10
2063.00,99.11
2062.00,99.11
2061.00,99.11
2060.00,99.11
2059.00,99.11
2058.00,99.12
2057.00,99.12
2056.00,99.11
2055.00,99.11
2054.00,99.11
2053.00,99.11
2052.00,99.11
2051.00,99.11
2050.00,99.11
2049.00,99.11
2048.00,99.10
2047.00,99.11
2046.00,99.12
2045.00,99.12
2044.00,99.12
2043.00,99.12
2042.00,99.12
2041.00,99.12
2040.00,99.11
2039.00,99.11
2038.00,99.12
2037.00,99.12
2036.00,99.11
2035.00,99.11
2034.00,99.12
2033.00,99.11
2032.00,99.11
2031.00,99.11
2030.00,99.11
2029.00,99.11
2028.00,99.11
2027.00,99.10
2026.00,99.11
2025.00,99.11
2024.00,99.11
2023.00,99.11
2022.00,99.12
2021.00,99.12
2020.00,99.11
2019.00,99.11
2018.00,99.11
2017.00,99.11
2016.00,99.11
2015.00,99.12
2014.00,99.13
2013.00,99.12
2012.00,99.12
2011.00,99.11
2010.00,99.12
2009.00,99.12
2008.00,99.11
2007.00,99.12
2006.00,99.13
2005.00,99.14
2004.00,99.13
2003.00,99.13
2002.00,99.13
2001.00,99.12
2000.00,99.12
1999.00,99.12
1998.00,99.12
1997.00,99.13
1996.00,99.12
1995.00,99.11
1994.00,99.10
1993.00,99.09
1992.00,99.09
1991.00,99.11
1990.00,99.12
1989.00,99.13
1988.00,99.12
1987.00,99.12
1986.00,99.13
1985.00,99.13
1984.00,99.13
1983.00,99.12
1982.00,99.12
1981.00,99.12
1980.00,99.12
1979.00,99.12
1978.00,99.12
1977.00,99.12
1976.00,99.12
1975.00,99.12
1974.00,99.12
1973.00,99.13
1972.00,99.13
1971.00,99.12
1970.00,99.11
1969.00,99.10
1968.00,99.10
1967.00,99.11
1966.00,99.12
1965.00,99.13
1964.00,99.14
1963.00,99.14
1962.00,99.13
1961.00,99.13
1960.00,99.13
1959.00,99.13
1958.00,99.13
1957.00,99.13
1956.00,99.13
1955.00,99.13
1954.00,99.12
1953.00,99.12
1952.00,99.13
1951.00,99.14
1950.00,99.14
1949.00,99.13
1948.00,99.13
1947.00,99.13
1946.00,99.12
1945.00,99.09
1944.00,99.08
1943.00,99.08
1942.00,99.10
1941.00,99.13
1940.00,99.15
1939.00,99.16
1938.00,99.15
1937.00,99.14
1936.00,99.14
1935.00,99.14
1934.00,99.13
1933.00,99.13
1932.00,99.12
1931.00,99.13
1930.00,99.13
1929.00,99.13
1928.00,99.13
1927.00,99.14
1926.00,99.14
1925.00,99.11
1924.00,99.10
1923.00,99.12
1922.00,99.14
1921.00,99.14
1920.00,99.12
1919.00,99.12
1918.00,99.12
1917.00,99.13
1916.00,99.15
1915.00,99.17
1914.00,99.18
1913.00,99.16
1912.00,99.13
1911.00,99.12
1910.00,99.12
1909.00,99.11
1908.00,99.11
1907.00,99.13
1906.00,99.16
1905.00,99.14
1904.00,99.12
1903.00,99.14
1902.00,99.15
1901.00,99.14
1900.00,99.12
1899.00,99.14
1898.00,99.15
1897.00,99.13
1896.00,99.11
1895.00,99.13
1894.00,99.16
1893.00,99.14
1892.00,99.10
1891.00,99.08
1890.00,99.09
1889.00,99.09
1888.00,99.10
1887.00,99.14
1886.00,99.17
1885.00,99.15
1884.00,99.13
1883.00,99.15
1882.00,99.17
1881.00,99.16
1880.00,99.14
1879.00,99.16
1878.00,99.18
1877.00,99.17
1876.00,99.15
1875.00,99.16
1874.00,99.18
1873.00,99.17
1872.00,99.12
1871.00,99.07
1870.00,99.05
1869.00,99.03
1868.00,99.03
1867.00,99.09
1866.00,99.16
1865.00,99.17
1864.00,99.15
1863.00,99.16
1862.00,99.18
1861.00,99.16
1860.00,99.12
1859.00,99.13
1858.00,99.15
1857.00,99.15
1856.00,99.13
1855.00,99.14
1854.00,99.16
1853.00,99.16
1852.00,99.15
1851.00,99.17
1850.00,99.18
1849.00,99.18
1848.00,99.16
1847.00,99.14
1846.00,99.11
1845.00,99.09
1844.00,99.10
1843.00,99.16
1842.00,99.21
1841.00,99.22
1840.00,99.19
1839.00,99.17
1838.00,99.17
1837.00,99.16
1836.00,99.15
1835.00,99.17
1834.00,99.18
1833.00,99.14
1832.00,99.08
1831.00,99.02
1830.00,99.01
1829.00,99.05
1828.00,99.10
1827.00,99.13
1826.00,99.15
1825.00,99.15
1824.00,99.15
1823.00,99.16
1822.00,99.18
1821.00,99.18
1820.00,99.15
1819.00,99.15
1818.00,99.18
1817.00,99.18
1816.00,99.15
1815.00,99.14
1814.00,99.17
1813.00,99.17
1812.00,99.13
1811.00,99.12
1810.00,99.17
1809.00,99.18
1808.00,99.15
1807.00,99.15
1806.00,99.19
1805.00,99.18
1804.00,99.14
1803.00,99.14
1802.00,99.18
1801.00,99.19
1800.00,99.17
1799.00,99.18
1798.00,99.22
1797.00,99.23
1796.00,99.21
1795.00,99.23
1794.00,99.29
1793.00,99.29
1792.00,99.24
1791.00,99.22
1790.00,99.25
1789.00,99.26
1788.00,99.23
1787.00,99.22
1786.00,99.25
1785.00,99.23
1784.00,99.19
1783.00,99.17
1782.00,99.18
1781.00,99.19
1780.00,99.20
1779.00,99.21
1778.00,99.22
1777.00,99.22
1776.00,99.21
1775.00,99.20
1774.00,99.20
1773.00,99.22
1772.00,99.21
1771.00,99.19
1770.00,99.22
1769.00,99.28
1768.00,99.29
1767.00,99.26
1766.00,99.25
1765.00,99.26
1764.00,99.23
1763.00,99.18
1762.00,99.17
1761.00,99.21
1760.00,99.22
1759.00,99.21
1758.00,99.21
1757.00,99.26
1756.00,99.31
1755.00,99.32
1754.00,99.37
1753.00,99.49
1752.00,99.56
1751.00,99.50
1750.00,99.38
1749.00,99.31
1748.00,99.29
1747.00,99.25
1746.00,99.22
1745.00,99.24
1744.00,99.26
1743.00,99.24
1742.00,99.25
1741.00,99.29
1740.00,99.30
1739.00,99.29
1738.00,99.31
1737.00,99.38
1736.00,99.50
1735.00,99.59
1734.00,99.58
1733.00,99.49
1732.00,99.39
1731.00,99.33
1730.00,99.28
1729.00,99.25
1728.00,99.24
1727.00,99.22
1726.00,99.23
1725.00,99.22
1724.00,99.21
1723.00,99.23
1722.00,99.28
1721.00,99.26
1720.00,99.17
1719.00,99.16
1718.00,99.27
1717.00,99.29
1716.00,99.24
1715.00,99.28
1714.00,99.37
1713.00,99.34
1712.00,99.25
1711.00,99.24
1710.00,99.29
1709.00,99.28
1708.00,99.20
1707.00,99.18
1706.00,99.22
1705.00,99.22
1704.00,99.20
1703.00,99.30
1702.00,99.48
1701.00,99.53
1700.00,99.42
1699.00,99.34
1698.00,99.30
1697.00,99.19
1696.00,99.07
1695.00,99.09
1694.00,99.22
1693.00,99.30
1692.00,99.29
1691.00,99.27
1690.00,99.27
1689.00,99.30
1688.00,99.29
1687.00,99.20
1686.00,99.08
1685.00,99.01
1684.00,99.06
1683.00,99.16
1682.00,99.21
1681.00,99.25
1680.00,99.30
1679.00,99.32
1678.00,99.30
1677.00,99.33
1676.00,99.39
1675.00,99.36
1674.00,99.28
1673.00,99.25
1672.00,99.29
1671.00,99.30
1670.00,99.24
1669.00,99.21
1668.00,99.25
1667.00,99.26
1666.00,99.24
1665.00,99.22
1664.00,99.24
1663.00,99.25
1662.00,99.22
1661.00,99.23
1660.00,99.30
1659.00,99.32
1658.00,99.27
1657.00,99.25
1656.00,99.24
1655.00,99.19
1654.00,99.13
1653.00,99.09
1652.00,99.10
1651.00,99.14
1650.00,99.21
1649.00,99.24
1648.00,99.27
1647.00,99.29
1646.00,99.34
1645.00,99.34
1644.00,99.33
1643.00,99.33
1642.00,99.34
1641.00,99.34
1640.00,99.32
1639.00,99.29
1638.00,99.28
1637.00,99.30
1636.00,99.30
1635.00,99.28
1634.00,99.27
1633.00,99.27
1632.00,99.29
1631.00,99.31
1630.00,99.30
1629.00,99.25
1628.00,99.23
1627.00,99.24
1626.00,99.24
1625.00,99.23
1624.00,99.25
1623.00,99.26
1622.00,99.22
1621.00,99.21
1620.00,99.24
1619.00,99.27
1618.00,99.23
1617.00,99.20
1616.00,99.22
1615.00,99.25
1614.00,99.23
1613.00,99.21
1612.00,99.25
1611.00,99.28
1610.00,99.23
1609.00,99.19
1608.00,99.21
1607.00,99.24
1606.00,99.20
1605.00,99.18
1604.00,99.22
1603.00,99.23
1602.00,99.19
1601.00,99.18
1600.00,99.22
1599.00,99.24
1598.00,99.19
1597.00,99.17
1596.00,99.19
1595.00,99.20
1594.00,99.18
1593.00,99.17
1592.00,99.21
1591.00,99.23
1590.00,99.20
1589.00,99.18
1588.00,99.20
1587.00,99.23
1586.00,99.20
1585.00,99.18
1584.00,99.24
1583.00,99.27
1582.00,99.21
1581.00,99.18
1580.00,99.20
1579.00,99.17
1578.00,99.09
1577.00,99.06
1576.00,99.14
1575.00,99.19
1574.00,99.18
1573.00,99.18
1572.00,99.21
1571.00,99.20
1570.00,99.13
1569.00,99.16
1568.00,99.27
1567.00,99.31
1566.00,99.26
1565.00,99.24
1564.00,99.29
1563.00,99.28
1562.00,99.19
1561.00,99.20
1560.00,99.31
1559.00,99.32
1558.00,99.25
1557.00,99.26
1556.00,99.38
1555.00,99.45
1554.00,99.44
1553.00,99.44
1552.00,99.44
1551.00,99.41
1550.00,99.37
1549.00,99.39
1548.00,99.47
1547.00,99.51
1546.00,99.48
1545.00,99.43
1544.00,99.42
1543.00,99.44
1542.00,99.47
1541.00,99.47
1540.00,99.43
1539.00,99.39
1538.00,99.35
1537.00,99.33
1536.00,99.33
1535.00,99.33
1534.00,99.30
1533.00,99.29
1532.00,99.29
1531.00,99.31
1530.00,99.33
1529.00,99.31
1528.00,99.30
1527.00,99.33
1526.00,99.38
1525.00,99.40
1524.00,99.37
1523.00,99.33
1522.00,99.30
1521.00,99.27
1520.00,99.26
1519.00,99.26
1518.00,99.29
1517.00,99.31
1516.00,99.32
1515.00,99.35
1514.00,99.42
1513.00,99.45
1512.00,99.41
1511.00,99.37
1510.00,99.41
1509.00,99.49
1508.00,99.53
1507.00,99.53
1506.00,99.53
1505.00,99.50
1504.00,99.43
1503.00,99.36
1502.00,99.34
1501.00,99.32
1500.00,99.27
1499.00,99.24
1498.00,99.32
1497.00,99.42
1496.00,99.41
1495.00,99.38
1494.00,99.40
1493.00,99.42
1492.00,99.39
1491.00,99.36
1490.00,99.37
1489.00,99.34
1488.00,99.26
1487.00,99.26
1486.00,99.29
1485.00,99.28
1484.00,99.26
1483.00,99.26
1482.00,99.29
1481.00,99.29
1480.00,99.28
1479.00,99.29
1478.00,99.33
1477.00,99.33
1476.00,99.35
1475.00,99.45
1474.00,99.58
1473.00,99.61
1472.00,99.53
1471.00,99.45
1470.00,99.40
1469.00,99.36
1468.00,99.30
1467.00,99.29
1466.00,99.32
1465.00,99.36
1464.00,99.37
1463.00,99.36
1462.00,99.36
1461.00,99.36
1460.00,99.32
1459.00,99.29
1458.00,99.36
1457.00,99.48
1456.00,99.52
1455.00,99.46
1454.00,99.39
1453.00,99.37
1452.00,99.35
1451.00,99.32
1450.00,99.32
1449.00,99.34
1448.00,99.32
1447.00,99.27
1446.00,99.24
1445.00,99.28
1444.00,99.30
1443.00,99.25
1442.00,99.23
1441.00,99.30
1440.00,99.33
1439.00,99.31
1438.00,99.32
1437.00,99.40
1436.00,99.41
1435.00,99.34
1434.00,99.30
1433.00,99.33
1432.00,99.32
1431.00,99.24
1430.00,99.21
1429.00,99.26
1428.00,99.30
1427.00,99.28
1426.00,99.26
1425.00,99.32
1424.00,99.37
1423.00,99.32
1422.00,99.26
1421.00,99.28
1420.00,99.30
1419.00,99.26
1418.00,99.28
1417.00,99.37
1416.00,99.40
1415.00,99.33
1414.00,99.26
1413.00,99.30
1412.00,99.33
1411.00,99.28
1410.00,99.25
1409.00,99.28
1408.00,99.31
1407.00,99.27
1406.00,99.23
1405.00,99.26
1404.00,99.30
1403.00,99.29
1402.00,99.26
1401.00,99.29
1400.00,99.33
1399.00,99.33
1398.00,99.31
1397.00,99.32
1396.00,99.31
1395.00,99.26
1394.00,99.23
1393.00,99.27
1392.00,99.32
1391.00,99.30
1390.00,99.25
1389.00,99.24
1388.00,99.26
1387.00,99.27
1386.00,99.27
1385.00,99.28
1384.00,99.30
1383.00,99.28
1382.00,99.27
1381.00,99.27
1380.00,99.29
1379.00,99.29
1378.00,99.27
1377.00,99.27
1376.00,99.27
1375.00,99.26
1374.00,99.25
1373.00,99.26
1372.00,99.29
1371.00,99.29
1370.00,99.27
1369.00,99.26
1368.00,99.28
1367.00,99.29
1366.00,99.26
1365.00,99.24
1364.00,99.23
1363.00,99.22
1362.00,99.23
1361.00,99.25
1360.00,99.27
1359.00,99.28
1358.00,99.27
1357.00,99.26
1356.00,99.26
1355.00,99.26
1354.00,99.25
1353.00,99.25
1352.00,99.25
1351.00,99.25
1350.00,99.24
1349.00,99.24
1348.00,99.25
1347.00,99.25
1346.00,99.24
1345.00,99.24
1344.00,99.26
1343.00,99.27
1342.00,99.27
1341.00,99.28
1340.00,99.30
1339.00,99.30
1338.00,99.29
1337.00,99.28
1336.00,99.28
1335.00,99.27
1334.00,99.25
1333.00,99.25
1332.00,99.26
1331.00,99.25
1330.00,99.24
1329.00,99.24
1328.00,99.24
1327.00,99.23
1326.00,99.22
1325.00,99.22
1324.00,99.24
1323.00,99.24
1322.00,99.24
1321.00,99.25
1320.00,99.26
1319.00,99.26
1318.00,99.26
1317.00,99.27
1316.00,99.29
1315.00,99.29
1314.00,99.28
1313.00,99.28
1312.00,99.28
1311.00,99.26
1310.00,99.24
1309.00,99.24
1308.00,99.26
1307.00,99.27
1306.00,99.26
1305.00,99.27
1304.00,99.28
1303.00,99.27
1302.00,99.25
1301.00,99.25
1300.00,99.25
1299.00,99.25
1298.00,99.24
1297.00,99.25
1296.00,99.26
1295.00,99.25
1294.00,99.23
1293.00,99.23
1292.00,99.25
1291.00,99.25
1290.00,99.25
1289.00,99.26
1288.00,99.27
1287.00,99.26
1286.00,99.25
1285.00,99.25
1284.00,99.26
1283.00,99.25
1282.00,99.24
1281.00,99.24
1280.00,99.25
1279.00,99.25
1278.00,99.24
1277.00,99.25
1276.00,99.26
1275.00,99.26
1274.00,99.24
1273.00,99.24
1272.00,99.24
1271.00,99.24
1270.00,99.23
1269.00,99.23
1268.00,99.24
1267.00,99.23
1266.00,99.22
1265.00,99.22
1264.00,99.22
1263.00,99.21
1262.00,99.20
1261.00,99.21
1260.00,99.23
1259.00,99.23
1258.00,99.22
1257.00,99.23
1256.00,99.24
1255.00,99.23
1254.00,99.23
1253.00,99.24
1252.00,99.25
1251.00,99.24
1250.00,99.23
1249.00,99.23
1248.00,99.25
1247.00,99.23
1246.00,99.21
1245.00,99.21
1244.00,99.22
1243.00,99.22
1242.00,99.21
1241.00,99.22
1240.00,99.23
1239.00,99.22
1238.00,99.20
1237.00,99.19
1236.00,99.20
1235.00,99.19
1234.00,99.18
1233.00,99.18
1232.00,99.19
1231.00,99.19
1230.00,99.19
1229.00,99.20
1228.00,99.22
1227.00,99.22
1226.00,99.22
1225.00,99.23
1224.00,99.25
1223.00,99.24
1222.00,99.22
1221.00,99.22
1220.00,99.23
1219.00,99.22
1218.00,99.20
1217.00,99.20
1216.00,99.21
1215.00,99.20
1214.00,99.18
1213.00,99.19
1212.00,99.21
1211.00,99.21
1210.00,99.20
1209.00,99.21
1208.00,99.22
1207.00,99.21
1206.00,99.20
1205.00,99.19
1204.00,99.20
1203.00,99.19
1202.00,99.18
1201.00,99.18
1200.00,99.19
1199.00,99.18
1198.00,99.16
1197.00,99.16
1196.00,99.17
1195.00,99.16
1194.00,99.16
1193.00,99.18
1192.00,99.19
1191.00,99.19
1190.00,99.17
1189.00,99.16
1188.00,99.16
1187.00,99.15
1186.00,99.14
1185.00,99.14
1184.00,99.16
1183.00,99.15
1182.00,99.15
1181.00,99.16
1180.00,99.17
1179.00,99.16
1178.00,99.14
1177.00,99.14
1176.00,99.15
1175.00,99.14
1174.00,99.12
1173.00,99.12
1172.00,99.14
1171.00,99.13
1170.00,99.13
1169.00,99.14
1168.00,99.15
1167.00,99.14
1166.00,99.13
1165.00,99.13
1164.00,99.14
1163.00,99.14
1162.00,99.13
1161.00,99.13
1160.00,99.14
1159.00,99.13
1158.00,99.12
1157.00,99.12
1156.00,99.12
1155.00,99.11
1154.00,99.11
1153.00,99.13
1152.00,99.16
1151.00,99.16
1150.00,99.15
1149.00,99.15
1148.00,99.16
1147.00,99.15
1146.00,99.12
1145.00,99.10
1144.00,99.09
1143.00,99.07
1142.00,99.06
1141.00,99.09
1140.00,99.13
1139.00,99.14
1138.00,99.13
1137.00,99.13
1136.00,99.13
1135.00,99.11
1134.00,99.09
1133.00,99.10
1132.00,99.12
1131.00,99.12
1130.00,99.11
1129.00,99.10
1128.00,99.09
1127.00,99.07
1126.00,99.05
1125.00,99.06
1124.00,99.08
1123.00,99.08
1122.00,99.06
1121.00,99.06
1120.00,99.07
1119.00,99.06
1118.00,99.04
1117.00,99.04
1116.00,99.06
1115.00,99.05
1114.00,99.03
1113.00,99.03
1112.00,99.04
1111.00,99.03
1110.00,99.03
1109.00,99.05
1108.00,99.07
1107.00,99.06
1106.00,99.03
1105.00,99.02
1104.00,99.03
1103.00,99.01
1102.00,98.98
1101.00,98.99
1100.00,99.01
1099.00,99.00
1098.00,98.98
1097.00,98.98
1096.00,98.99
1095.00,98.97
1094.00,98.95
1093.00,98.96
1092.00,98.97
1091.00,98.95
1090.00,98.92
1089.00,98.93
1088.00,98.96
1087.00,98.97
1086.00,98.95
1085.00,98.96
1084.00,98.98
1083.00,98.95
1082.00,98.91
1081.00,98.91
1080.00,98.93
1079.00,98.91
1078.00,98.90
1077.00,98.92
1076.00,98.94
1075.00,98.93
1074.00,98.89
1073.00,98.88
1072.00,98.88
1071.00,98.85
1070.00,98.82
1069.00,98.85
1068.00,98.91
1067.00,98.92
1066.00,98.90
1065.00,98.91
1064.00,98.93
1063.00,98.90
1062.00,98.86
1061.00,98.85
1060.00,98.85
1059.00,98.82
1058.00,98.79
1057.00,98.81
1056.00,98.83
1055.00,98.81
1054.00,98.77
1053.00,98.79
1052.00,98.84
1051.00,98.86
1050.00,98.84
1049.00,98.82
1048.00,98.80
1047.00,98.74
1046.00,98.69
1045.00,98.71
1044.00,98.77
1043.00,98.80
1042.00,98.81
1041.00,98.82
1040.00,98.83
1039.00,98.81
1038.00,98.80
1037.00,98.85
1036.00,98.89
1035.00,98.87
1034.00,98.81
1033.00,98.78
1032.00,98.76
1031.00,98.70
1030.00,98.66
1029.00,98.71
1028.00,98.78
1027.00,98.79
1026.00,98.75
1025.00,98.75
1024.00,98.79
1023.00,98.79
1022.00,98.78
1021.00,98.80
1020.00,98.82
1019.00,98.78
1018.00,98.74
1017.00,98.77
1016.00,98.82
1015.00,98.79
1014.00,98.71
1013.00,98.71
1012.00,98.76
1011.00,98.76
1010.00,98.73
1009.00,98.73
1008.00,98.72
1007.00,98.63
1006.00,98.53
1005.00,98.51
1004.00,98.54
1003.00,98.54
1002.00,98.53
1001.00,98.59
1000.00,98.67
999.00,98.68
998.00,98.67
997.00,98.71
996.00,98.73
995.00,98.64
994.00,98.49
993.00,98.41
992.00,98.42
991.00,98.43
990.00,98.49
989.00,98.64
988.00,98.76
987.00,98.72
986.00,98.60
985.00,98.57
984.00,98.58
983.00,98.52
982.00,98.40
981.00,98.32
980.00,98.24
979.00,98.11
978.00,98.04
977.00,98.14
976.00,98.30
975.00,98.33
974.00,98.27
973.00,98.30
972.00,98.41
971.00,98.42
970.00,98.37
969.00,98.38
968.00,98.39
967.00,98.29
966.00,98.22
965.00,98.33
964.00,98.50
963.00,98.51
962.00,98.44
961.00,98.47
960.00,98.50
959.00,98.35
958.00,98.16
957.00,98.18
956.00,98.27
955.00,98.19
954.00,98.03
953.00,98.09
952.00,98.27
951.00,98.30
950.00,98.28
949.00,98.39
948.00,98.47
947.00,98.19
946.00,97.78
945.00,97.60
944.00,97.55
943.00,97.33
942.00,97.19
941.00,97.45
940.00,97.78
939.00,97.63
938.00,97.23
937.00,97.27
936.00,97.84
935.00,98.48
934.00,99.14
933.00,99.97
932.00,100.49
931.00,100.08
930.00,99.24
929.00,98.86
928.00,98.71
927.00,98.03
926.00,97.16
925.00,96.95
924.00,97.23
923.00,97.17
922.00,96.90
921.00,97.13
920.00,97.55
919.00,97.36
918.00,96.91
917.00,97.04
916.00,97.25
915.00,96.70
914.00,96.24
913.00,97.06
912.00,98.23
911.00,98.12
910.00,97.55
909.00,98.44
908.00,99.93
907.00,99.72
906.00,98.45
905.00,98.45
904.00,98.86
903.00,97.39
902.00,95.45
901.00,95.76
900.00,97.01
899.00,95.84
898.00,92.98
897.00,91.61
896.00,90.90
895.00,88.68
894.00,87.07
893.00,88.68
892.00,92.76
891.00,95.98
890.00,96.76
889.00,99.63
888.00,102.06
887.00,97.27
886.00,91.64
885.00,92.43
884.00,95.84
883.00,95.27
882.00,93.44
881.00,98.15
880.00,104.54
879.00,98.48
878.00,85.57
877.00,82.25
876.00,91.37
875.00,106.67
874.00,115.61
873.00,152.79
872.00,200.60
871.00,164.49
870.00,121.17
869.00,124.64
868.00,139.81
867.00,124.85
866.00,87.38
865.00,80.21
864.00,93.63
863.00,92.60
862.00,95.00
861.00,87.27
860.00,104.15
859.00,131.99
858.00,136.16
857.00,238.32
856.00,189.95
855.00,329.14
854.00,158.73
853.00,79.12
852.00,44.80
851.00,8.71
850.00,52.49
849.00,126.47
848.00,108.66
847.00,81.86
846.00,81.23
845.00,138.03
844.00,123.37
843.00,173.64
842.00,58.13
841.00,54.68
840.00,66.63
839.00,43.59
838.00,29.38
837.00,90.24
836.00,182.97
835.00,72.98
834.00,24.61
833.00,65.16
832.00,143.83
831.00,98.98
830.00,27.37
829.00,82.93
828.00,318.25
827.00,63.43
826.00,6.67
825.00,100.95
824.00,84.50
823.00,50.60
822.00,58.74
821.00,59.23
820.00,30.57
819.00,95.64
818.00,163.69
817.00,78.14
816.00,193.63
815.00,32.18
814.00,15.53
813.00,40.57
812.00,52.63
811.00,38.79
810.00,15.89
809.00,27.35
808.00,64.22
807.00,7.60
806.00,14.58
805.00,46.20
804.00,69.80
803.00,46.87
802.00,17.79
801.00,35.13
800.00,41.45
799.00,55.74
798.00,54.77
797.00,43.33
796.00,94.68
795.00,34.82
794.00,25.50
793.00,60.73
792.00,162.14
791.00,64.07
790.00,15.82
789.00,42.17
788.00,54.80
787.00,37.12
786.00,67.77
785.00,125.18
784.00,67.72
783.00,26.46
782.00,51.16
781.00,27.66
780.00,47.75
779.00,30.54
778.00,54.58
777.00,40.54
776.00,34.35
775.00,44.05
774.00,62.95
773.00,174.07
772.00,104.14
771.00,191.46
770.00,83.28
769.00,88.70
768.00,133.94
767.00,63.90
766.00,38.19
765.00,34.43
764.00,58.25
763.00,52.25
762.00,39.17
761.00,119.09
760.00,128.58
759.00,292.36
758.00,539.21
757.00,268.68
756.00,89.10
755.00,69.36
754.00,40.27
753.00,31.31
752.00,40.14
751.00,8.32
750.00,60.16
749.00,100.32
748.00,39.84
747.00,43.93
746.00,111.24
745.00,365.81
744.00,108.71
743.00,129.66
742.00,242.36
741.00,31.38
740.00,35.03
739.00,152.31
738.00,146.17
737.00,202.17
736.00,42.58
735.00,20.48
734.00,25.67
733.00,27.80
732.00,44.57
731.00,92.08
730.00,111.96
729.00,104.37
728.00,58.90
727.00,108.24
726.00,64.55
725.00,168.17
724.00,132.08
723.00,82.01
722.00,49.06
721.00,133.76
720.00,367.53
719.00,319.13
718.00,177.34
717.00,222.24
716.00,40.67
715.00,68.50
714.00,106.10
713.00,29.48
712.00,46.81
711.00,19.23
710.00,21.20
709.00,43.86
708.00,118.00
707.00,60.40
706.00,50.90
705.00,15.40
704.00,30.58
703.00,24.95
702.00,9.83
701.00,31.41
700.00,41.60
699.00,48.07
698.00,67.40
697.00,12.79
696.00,41.43
695.00,76.48
694.00,9.16
693.00,67.69
692.00,170.61
691.00,59.37
690.00,25.92
689.00,62.09
688.00,51.18
687.00,24.01
686.00,27.88
685.00,57.86
684.00,148.34
683.00,123.11
682.00,73.21
681.00,127.22
680.00,106.67
679.00,51.90
678.00,16.33
677.00,74.64
676.00,110.86
675.00,102.45
674.00,22.11
673.00,56.09
672.00,54.52
671.00,36.20
670.00,67.80
669.00,22.21
668.00,42.26
667.00,129.97
666.00,56.76
665.00,103.53
664.00,42.09
663.00,97.22
662.00,237.77
661.00,132.57
660.00,7.61
659.00,15.95
658.00,130.84
657.00,169.63
656.00,147.16
655.00,81.76
654.00,23.06
653.00,39.65
652.00,17.54
651.00,16.94
650.00,61.33
649.00,26.59
648.00,50.04
647.00,32.57
646.00,4.05
645.00,22.29
644.00,69.59
643.00,103.91
642.00,42.69
641.00,43.06
640.00,92.61
639.00,43.38
638.00,39.96
637.00,50.86
636.00,87.37
635.00,60.48
634.00,38.11
633.00,119.29
632.00,115.43
631.00,66.66
630.00,35.67
629.00,69.74
628.00,148.81
627.00,116.88
626.00,85.41
625.00,120.94
624.00,132.26
623.00,125.50
622.00,87.09
621.00,132.58
620.00,12.26
619.00,26.49
618.00,41.11
617.00,67.38
616.00,77.32
615.00,44.66
614.00,7.79
613.00,47.94
612.00,127.30
611.00,120.03
610.00,265.81
609.00,154.75
608.00,113.53
607.00,86.56
606.00,36.79
605.00,25.93
604.00,62.27
603.00,48.86
602.00,20.11
601.00,81.61
600.00,68.91
599.00,13.53
598.00,13.45
597.00,37.91
596.00,94.37
595.00,116.58
594.00,63.32
593.00,142.57
592.00,109.53
591.00,321.01
590.00,138.84
589.00,93.05
588.00,82.82
587.00,113.74
586.00,99.71
585.00,128.59
584.00,22.45
583.00,91.92
582.00,88.39
581.00,333.13
580.00,212.32
579.00,306.11
578.00,77.52
577.00,111.58
576.00,172.12
575.00,466.35
574.00,112.80
573.00,219.56
572.00,611.36
571.00,87.38
570.00,-35.25
569.00,176.77
568.00,1920.26
567.00,147.92
566.00,-34.18
565.00,33.85
564.00,41.84
563.00,49.48
562.00,55.13
561.00,351.17
560.00,108.70
559.00,219.78
558.00,127.99
557.00,41.42
556.00,86.00
555.00,172.31
554.00,137.68
553.00,135.79
552.00,112.95
551.00,95.13
550.00,81.18
549.00,128.72
548.00,98.96
547.00,112.02
546.00,46.69
545.00,118.49
544.00,155.53
543.00,51.09
542.00,8.41
541.00,39.95
540.00,96.82
539.00,35.13
538.00,44.10
537.00,118.26
536.00,83.01
535.00,150.36
534.00,246.74
533.00,185.25
532.00,78.12
531.00,97.58
530.00,40.58
529.00,14.89
528.00,76.40
527.00,23.12
526.00,61.37
525.00,54.35
524.00,21.19
523.00,17.59
522.00,40.11
521.00,44.84
520.00,62.56
519.00,20.62
518.00,20.29
517.00,75.70
516.00,115.52
515.00,57.07
514.00,35.33
513.00,56.38
512.00,74.95
511.00,76.87
510.00,96.21
509.00,179.62
508.00,20.71
507.00,51.49
506.00,51.47
505.00,24.30
504.00,61.67
503.00,60.85
502.00,209.68
501.00,100.45
500.00,33.44
499.00,54.96
498.00,64.57
497.00,49.04
496.00,16.59
495.00,52.96
494.00,133.21
493.00,85.74
492.00,47.60
491.00,74.81
490.00,193.61
489.00,220.34
488.00,65.15
487.00,124.59
486.00,94.47
485.00,48.44
484.00,65.25
483.00,102.46
482.00,336.42
481.00,98.35
480.00,58.00
479.00,23.91
478.00,98.06
477.00,254.96
476.00,106.45
475.00,105.84
474.00,48.44
473.00,38.08
472.00,102.71
471.00,31.20
470.00,6.35
469.00,38.74
468.00,279.85
467.00,76.86
466.00,58.80
465.00,68.03
464.00,50.39
463.00,68.44
462.00,72.94
461.00,163.72
460.00,284.09
459.00,200.25
458.00,119.61
457.00,139.06
456.00,90.57
455.00,53.74
454.00,40.36
453.00,23.45
452.00,26.99
451.00,37.11
450.00,98.74
