Created as New Dataset,Sample 004 By Administrator Date Thursday, October 16 2025
cm-1,%T
4000.00,98.93
3999.00,98.92
3998.00,98.92
3997.00,98.92
3996.00,98.93
3995.00,98.93
3994.00,98.94
3993.00,98.94
3992.00,98.94
3991.00,98.94
3990.00,98.95
3989.00,98.95
3988.00,98.96
3987.00,98.96
3986.00,98.96
3985.00,98.96
3984.00,98.95
3983.00,98.95
3982.00,98.95
3981.00,98.95
3980.00,98.96
3979.00,98.96
3978.00,98.97
3977.00,98.97
3976.00,98.97
3975.00,98.96
3974.00,98.96
3973.00,98.96
3972.00,98.96
3971.00,98.96
3970.00,98.96
3969.00,98.96
3968.00,98.96
3967.00,98.95
3966.00,98.95
3965.00,98.95
3964.00,98.96
3963.00,98.96
3962.00,98.97
3961.00,98.97
3960.00,98.97
3959.00,98.95
3958.00,98.95
3957.00,98.95
3956.00,98.95
3955.00,98.95
3954.00,98.94
3953.00,98.94
3952.00,98.94
3951.00,98.95
3950.00,98.97
3949.00,99.00
3948.00,99.03
3947.00,99.04
3946.00,99.02
3945.00,98.97
3944.00,98.93
3943.00,98.93
3942.00,98.95
3941.00,98.97
3940.00,98.96
3939.00,98.96
3938.00,98.97
3937.00,99.00
3936.00,99.01
3935.00,99.02
3934.00,99.02
3933.00,99.01
3932.00,98.99
3931.00,98.96
3930.00,98.94
3929.00,98.94
3928.00,98.95
3927.00,98.93
3926.00,98.91
3925.00,98.93
3924.00,98.98
3923.00,99.01
3922.00,99.00
3921.00,99.02
3920.00,99.05
3919.00,99.06
3918.00,99.04
3917.00,99.03
3916.00,99.03
3915.00,99.02
3914.00,98.99
3913.00,98.97
3912.00,98.98
3911.00,98.99
3910.00,98.99
3909.00,98.98
3908.00,98.97
3907.00,98.95
3906.00,98.96
3905.00,99.03
3904.00,99.17
3903.00,99.27
3902.00,99.26
3901.00,99.16
3900.00,99.09
3899.00,99.07
3898.00,99.06
3897.00,99.05
3896.00,99.04
3895.00,99.05
3894.00,99.04
3893.00,99.00
3892.00,98.98
3891.00,99.04
3890.00,99.14
3889.00,99.19
3888.00,99.17
3887.00,99.14
3886.00,99.15
3885.00,99.17
3884.00,99.12
3883.00,99.01
3882.00,98.92
3881.00,98.94
3880.00,99.03
3879.00,99.11
3878.00,99.12
3877.00,99.06
3876.00,98.98
3875.00,98.98
3874.00,99.06
3873.00,99.12
3872.00,99.10
3871.00,99.07
3870.00,99.14
3869.00,99.24
3868.00,99.23
3867.00,99.11
3866.00,99.07
3865.00,99.13
3864.00,99.15
3863.00,99.10
3862.00,99.09
3861.00,99.13
3860.00,99.14
3859.00,99.10
3858.00,99.05
3857.00,99.03
3856.00,99.06
3855.00,99.12
3854.00,99.17
3853.00,99.23
3852.00,99.26
3851.00,99.22
3850.00,99.19
3849.00,99.21
3848.00,99.20
3847.00,99.15
3846.00,99.09
3845.00,99.06
3844.00,99.06
3843.00,99.08
3842.00,99.12
3841.00,99.11
3840.00,99.08
3839.00,99.07
3838.00,99.08
3837.00,99.08
3836.00,99.09
3835.00,99.10
3834.00,99.12
3833.00,99.11
3832.00,99.12
3831.00,99.14
3830.00,99.15
3829.00,99.10
3828.00,99.03
3827.00,99.03
3826.00,99.12
3825.00,99.20
3824.00,99.20
3823.00,99.14
3822.00,99.11
3821.00,99.17
3820.00,99.24
3819.00,99.23
3818.00,99.16
3817.00,99.14
3816.00,99.19
3815.00,99.22
3814.00,99.15
3813.00,99.07
3812.00,99.07
3811.00,99.16
3810.00,99.22
3809.00,99.20
3808.00,99.17
3807.00,99.22
3806.00,99.31
3805.00,99.31
3804.00,99.22
3803.00,99.15
3802.00,99.16
3801.00,99.19
3800.00,99.16
3799.00,99.10
3798.00,99.06
3797.00,99.09
3796.00,99.13
3795.00,99.12
3794.00,99.07
3793.00,99.03
3792.00,99.04
3791.00,99.05
3790.00,99.04
3789.00,99.03
3788.00,99.03
3787.00,99.02
3786.00,99.02
3785.00,99.02
3784.00,99.05
3783.00,99.06
3782.00,99.04
3781.00,98.99
3780.00,98.99
3779.00,99.03
3778.00,99.07
3777.00,99.06
3776.00,99.04
3775.00,99.07
3774.00,99.12
3773.00,99.13
3772.00,99.09
3771.00,99.09
3770.00,99.14
3769.00,99.16
3768.00,99.13
3767.00,99.09
3766.00,99.09
3765.00,99.14
3764.00,99.17
3763.00,99.15
3762.00,99.12
3761.00,99.11
3760.00,99.12
3759.00,99.13
3758.00,99.14
3757.00,99.19
3756.00,99.25
3755.00,99.29
3754.00,99.37
3753.00,99.52
3752.00,99.65
3751.00,99.67
3750.00,99.66
3749.00,99.67
3748.00,99.62
3747.00,99.45
3746.00,99.28
3745.00,99.25
3744.00,99.34
3743.00,99.39
3742.00,99.39
3741.00,99.41
3740.00,99.52
3739.00,99.61
3738.00,99.57
3737.00,99.49
3736.00,99.46
3735.00,99.43
3734.00,99.37
3733.00,99.33
3732.00,99.34
3731.00,99.34
3730.00,99.31
3729.00,99.28
3728.00,99.27
3727.00,99.28
3726.00,99.27
3725.00,99.21
3724.00,99.15
3723.00,99.12
3722.00,99.13
3721.00,99.15
3720.00,99.14
3719.00,99.13
3718.00,99.14
3717.00,99.20
3716.00,99.25
3715.00,99.29
3714.00,99.35
3713.00,99.40
3712.00,99.38
3711.00,99.30
3710.00,99.24
3709.00,99.21
3708.00,99.19
3707.00,99.18
3706.00,99.17
3705.00,99.15
3704.00,99.10
3703.00,99.05
3702.00,99.04
3701.00,99.07
3700.00,99.09
3699.00,99.09
3698.00,99.09
3697.00,99.13
3696.00,99.16
3695.00,99.15
3694.00,99.13
3693.00,99.15
3692.00,99.18
3691.00,99.18
3690.00,99.21
3689.00,99.25
3688.00,99.28
3687.00,99.27
3686.00,99.23
3685.00,99.20
3684.00,99.22
3683.00,99.23
3682.00,99.19
3681.00,99.15
3680.00,99.21
3679.00,99.33
3678.00,99.43
3677.00,99.44
3676.00,99.44
3675.00,99.45
3674.00,99.45
3673.00,99.39
3672.00,99.36
3671.00,99.37
3670.00,99.36
3669.00,99.30
3668.00,99.25
3667.00,99.20
3666.00,99.19
3665.00,99.18
3664.00,99.17
3663.00,99.14
3662.00,99.11
3661.00,99.13
3660.00,99.19
3659.00,99.23
3658.00,99.23
3657.00,99.23
3656.00,99.27
3655.00,99.31
3654.00,99.29
3653.00,99.29
3652.00,99.37
3651.00,99.50
3650.00,99.53
3649.00,99.45
3648.00,99.38
3647.00,99.34
3646.00,99.30
3645.00,99.26
3644.00,99.22
3643.00,99.19
3642.00,99.16
3641.00,99.12
3640.00,99.10
3639.00,99.11
3638.00,99.13
3637.00,99.15
3636.00,99.16
3635.00,99.17
3634.00,99.23
3633.00,99.32
3632.00,99.40
3631.00,99.46
3630.00,99.50
3629.00,99.51
3628.00,99.49
3627.00,99.41
3626.00,99.32
3625.00,99.29
3624.00,99.30
3623.00,99.28
3622.00,99.21
3621.00,99.15
3620.00,99.13
3619.00,99.15
3618.00,99.20
3617.00,99.26
3616.00,99.28
3615.00,99.28
3614.00,99.31
3613.00,99.37
3612.00,99.42
3611.00,99.44
3610.00,99.43
3609.00,99.41
3608.00,99.36
3607.00,99.29
3606.00,99.23
3605.00,99.20
3604.00,99.19
3603.00,99.16
3602.00,99.15
3601.00,99.16
3600.00,99.17
3599.00,99.16
3598.00,99.16
3597.00,99.17
3596.00,99.17
3595.00,99.17
3594.00,99.19
3593.00,99.23
3592.00,99.28
3591.00,99.31
3590.00,99.32
3589.00,99.32
3588.00,99.30
3587.00,99.27
3586.00,99.25
3585.00,99.24
3584.00,99.22
3583.00,99.19
3582.00,99.17
3581.00,99.15
3580.00,99.13
3579.00,99.10
3578.00,99.09
3577.00,99.10
3576.00,99.12
3575.00,99.12
3574.00,99.13
3573.00,99.16
3572.00,99.20
3571.00,99.24
3570.00,99.28
3569.00,99.31
3568.00,99.33
3567.00,99.31
3566.00,99.28
3565.00,99.24
3564.00,99.21
3563.00,99.20
3562.00,99.19
3561.00,99.18
3560.00,99.17
3559.00,99.15
3558.00,99.14
3557.00,99.15
3556.00,99.16
3555.00,99.15
3554.00,99.15
3553.00,99.15
3552.00,99.17
3551.00,99.19
3550.00,99.21
3549.00,99.23
3548.00,99.25
3547.00,99.25
3546.00,99.24
3545.00,99.22
3544.00,99.20
3543.00,99.18
3542.00,99.16
3541.00,99.16
3540.00,99.16
3539.00,99.16
3538.00,99.15
3537.00,99.16
3536.00,99.17
3535.00,99.17
3534.00,99.17
3533.00,99.17
3532.00,99.18
3531.00,99.17
3530.00,99.17
3529.00,99.17
3528.00,99.19
3527.00,99.22
3526.00,99.23
3525.00,99.23
3524.00,99.22
3523.00,99.20
3522.00,99.19
3521.00,99.18
3520.00,99.17
3519.00,99.17
3518.00,99.17
3517.00,99.17
3516.00,99.17
3515.00,99.16
3514.00,99.16
3513.00,99.16
3512.00,99.17
3511.00,99.17
3510.00,99.17
3509.00,99.19
3508.00,99.21
3507.00,99.21
3506.00,99.20
3505.00,99.20
3504.00,99.20
3503.00,99.20
3502.00,99.20
3501.00,99.20
3500.00,99.20
3499.00,99.20
3498.00,99.19
3497.00,99.19
3496.00,99.19
3495.00,99.18
3494.00,99.18
3493.00,99.18
3492.00,99.18
3491.00,99.18
3490.00,99.18
3489.00,99.18
3488.00,99.19
3487.00,99.20
3486.00,99.19
3485.00,99.19
3484.00,99.18
3483.00,99.18
3482.00,99.18
3481.00,99.19
3480.00,99.20
3479.00,99.20
3478.00,99.19
3477.00,99.18
3476.00,99.17
3475.00,99.16
3474.00,99.16
3473.00,99.17
3472.00,99.17
3471.00,99.18
3470.00,99.19
3469.00,99.20
3468.00,99.20
3467.00,99.20
3466.00,99.19
3465.00,99.19
3464.00,99.18
3463.00,99.17
3462.00,99.17
3461.00,99.18
3460.00,99.19
3459.00,99.19
3458.00,99.19
3457.00,99.19
3456.00,99.19
3455.00,99.19
3454.00,99.19
3453.00,99.19
3452.00,99.19
3451.00,99.19
3450.00,99.18
3449.00,99.18
3448.00,99.18
3447.00,99.19
3446.00,99.20
3445.00,99.21
3444.00,99.21
3443.00,99.21
3442.00,99.21
3441.00,99.22
3440.00,99.22
3439.00,99.22
3438.00,99.21
3437.00,99.21
3436.00,99.21
3435.00,99.21
3434.00,99.21
3433.00,99.21
3432.00,99.22
3431.00,99.22
3430.00,99.21
3429.00,99.21
3428.00,99.21
3427.00,99.20
3426.00,99.21
3425.00,99.21
3424.00,99.21
3423.00,99.21
3422.00,99.20
3421.00,99.21
3420.00,99.21
3419.00,99.21
3418.00,99.21
3417.00,99.21
3416.00,99.21
3415.00,99.21
3414.00,99.21
3413.00,99.21
3412.00,99.21
3411.00,99.21
3410.00,99.21
3409.00,99.21
3408.00,99.22
3407.00,99.22
3406.00,99.22
3405.00,99.22
3404.00,99.23
3403.00,99.23
3402.00,99.23
3401.00,99.23
3400.00,99.23
3399.00,99.23
3398.00,99.22
3397.00,99.22
3396.00,99.22
3395.00,99.22
3394.00,99.22
3393.00,99.22
3392.00,99.23
3391.00,99.23
3390.00,99.22
3389.00,99.22
3388.00,99.22
3387.00,99.23
3386.00,99.23
3385.00,99.24
3384.00,99.24
3383.00,99.24
3382.00,99.24
3381.00,99.24
3380.00,99.23
3379.00,99.22
3378.00,99.22
3377.00,99.22
3376.00,99.22
3375.00,99.21
3374.00,99.21
3373.00,99.22
3372.00,99.23
3371.00,99.23
3370.00,99.23
3369.00,99.23
3368.00,99.22
3367.00,99.22
3366.00,99.21
3365.00,99.21
3364.00,99.22
3363.00,99.23
3362.00,99.23
3361.00,99.23
3360.00,99.23
3359.00,99.23
3358.00,99.23
3357.00,99.23
3356.00,99.23
3355.00,99.23
3354.00,99.22
3353.00,99.23
3352.00,99.23
3351.00,99.23
3350.00,99.22
3349.00,99.22
3348.00,99.22
3347.00,99.22
3346.00,99.22
3345.00,99.22
3344.00,99.23
3343.00,99.23
3342.00,99.23
3341.00,99.23
3340.00,99.22
3339.00,99.22
3338.00,99.22
3337.00,99.22
3336.00,99.23
3335.00,99.23
3334.00,99.23
3333.00,99.22
3332.00,99.22
3331.00,99.22
3330.00,99.21
3329.00,99.22
3328.00,99.22
3327.00,99.22
3326.00,99.22
3325.00,99.23
3324.00,99.23
3323.00,99.23
3322.00,99.23
3321.00,99.24
3320.00,99.24
3319.00,99.23
3318.00,99.23
3317.00,99.23
3316.00,99.23
3315.00,99.22
3314.00,99.23
3313.00,99.23
3312.00,99.24
3311.00,99.24
3310.00,99.24
3309.00,99.25
3308.00,99.25
3307.00,99.25
3306.00,99.24
3305.00,99.24
3304.00,99.23
3303.00,99.23
3302.00,99.23
3301.00,99.23
3300.00,99.23
3299.00,99.23
3298.00,99.24
3297.00,99.25
3296.00,99.26
3295.00,99.26
3294.00,99.26
3293.00,99.27
3292.00,99.26
3291.00,99.26
3290.00,99.25
3289.00,99.25
3288.00,99.24
3287.00,99.24
3286.00,99.23
3285.00,99.24
3284.00,99.24
3283.00,99.24
3282.00,99.24
3281.00,99.25
3280.00,99.25
3279.00,99.25
3278.00,99.25
3277.00,99.25
3276.00,99.25
3275.00,99.25
3274.00,99.25
3273.00,99.26
3272.00,99.26
3271.00,99.26
3270.00,99.25
3269.00,99.25
3268.00,99.25
3267.00,99.25
3266.00,99.25
3265.00,99.26
3264.00,99.27
3263.00,99.27
3262.00,99.27
3261.00,99.27
3260.00,99.26
3259.00,99.26
3258.00,99.25
3257.00,99.25
3256.00,99.25
3255.00,99.24
3254.00,99.24
3253.00,99.24
3252.00,99.24
3251.00,99.24
3250.00,99.24
3249.00,99.25
3248.00,99.26
3247.00,99.26
3246.00,99.26
3245.00,99.26
3244.00,99.26
3243.00,99.25
3242.00,99.25
3241.00,99.25
3240.00,99.25
3239.00,99.25
3238.00,99.25
3237.00,99.25
3236.00,99.25
3235.00,99.25
3234.00,99.25
3233.00,99.25
3232.00,99.25
3231.00,99.25
3230.00,99.25
3229.00,99.26
3228.00,99.26
3227.00,99.25
3226.00,99.25
3225.00,99.25
3224.00,99.25
3223.00,99.25
3222.00,99.26
3221.00,99.26
3220.00,99.27
3219.00,99.26
3218.00,99.26
3217.00,99.27
3216.00,99.27
3215.00,99.27
3214.00,99.27
3213.00,99.26
3212.00,99.26
3211.00,99.25
3210.00,99.25
3209.00,99.25
3208.00,99.25
3207.00,99.25
3206.00,99.25
3205.00,99.25
3204.00,99.25
3203.00,99.25
3202.00,99.25
3201.00,99.26
3200.00,99.27
3199.00,99.27
3198.00,99.26
3197.00,99.26
3196.00,99.26
3195.00,99.26
3194.00,99.26
3193.00,99.26
3192.00,99.26
3191.00,99.25
3190.00,99.25
3189.00,99.25
3188.00,99.25
3187.00,99.25
3186.00,99.26
3185.00,99.26
3184.00,99.26
3183.00,99.26
3182.00,99.25
3181.00,99.25
3180.00,99.24
3179.00,99.24
3178.00,99.24
3177.00,99.25
3176.00,99.25
3175.00,99.25
3174.00,99.24
3173.00,99.24
3172.00,99.24
3171.00,99.25
3170.00,99.25
3169.00,99.26
3168.00,99.26
3167.00,99.26
3166.00,99.25
3165.00,99.26
3164.00,99.26
3163.00,99.26
3162.00,99.26
3161.00,99.26
3160.00,99.26
3159.00,99.25
3158.00,99.25
3157.00,99.26
3156.00,99.25
3155.00,99.25
3154.00,99.26
3153.00,99.26
3152.00,99.27
3151.00,99.26
3150.00,99.26
3149.00,99.25
3148.00,99.25
3147.00,99.24
3146.00,99.25
3145.00,99.25
3144.00,99.26
3143.00,99.26
3142.00,99.26
3141.00,99.26
3140.00,99.26
3139.00,99.26
3138.00,99.27
3137.00,99.27
3136.00,99.27
3135.00,99.26
3134.00,99.26
3133.00,99.27
3132.00,99.26
3131.00,99.26
3130.00,99.26
3129.00,99.27
3128.00,99.27
3127.00,99.26
3126.00,99.26
3125.00,99.27
3124.00,99.27
3123.00,99.27
3122.00,99.27
3121.00,99.27
3120.00,99.27
3119.00,99.26
3118.00,99.26
3117.00,99.27
3116.00,99.28
3115.00,99.28
3114.00,99.28
3113.00,99.27
3112.00,99.26
3111.00,99.26
3110.00,99.27
3109.00,99.27
3108.00,99.27
3107.00,99.27
3106.00,99.27
3105.00,99.27
3104.00,99.27
3103.00,99.27
3102.00,99.27
3101.00,99.28
3100.00,99.29
3099.00,99.29
3098.00,99.28
3097.00,99.29
3096.00,99.29
3095.00,99.28
3094.00,99.28
3093.00,99.28
3092.00,99.28
3091.00,99.27
3090.00,99.27
3089.00,99.28
3088.00,99.28
3087.00,99.28
3086.00,99.28
3085.00,99.28
3084.00,99.27
3083.00,99.27
3082.00,99.27
3081.00,99.28
3080.00,99.28
3079.00,99.28
3078.00,99.28
3077.00,99.28
3076.00,99.27
3075.00,99.27
3074.00,99.27
3073.00,99.28
3072.00,99.28
3071.00,99.28
3070.00,99.28
3069.00,99.29
3068.00,99.28
3067.00,99.28
3066.00,99.28
3065.00,99.28
3064.00,99.28
3063.00,99.27
3062.00,99.27
3061.00,99.27
3060.00,99.27
3059.00,99.27
3058.00,99.28
3057.00,99.28
3056.00,99.28
3055.00,99.28
3054.00,99.27
3053.00,99.27
3052.00,99.27
3051.00,99.27
3050.00,99.28
3049.00,99.28
3048.00,99.28
3047.00,99.27
3046.00,99.27
3045.00,99.27
3044.00,99.27
3043.00,99.27
3042.00,99.27
3041.00,99.27
3040.00,99.27
3039.00,99.27
3038.00,99.28
3037.00,99.29
3036.00,99.29
3035.00,99.29
3034.00,99.29
3033.00,99.29
3032.00,99.28
3031.00,99.28
3030.00,99.28
3029.00,99.28
3028.00,99.28
3027.00,99.28
3026.00,99.28
3025.00,99.28
3024.00,99.27
3023.00,99.28
3022.00,99.28
3021.00,99.29
3020.00,99.30
3019.00,99.31
3018.00,99.32
3017.00,99.32
3016.00,99.32
3015.00,99.31
3014.00,99.30
3013.00,99.30
3012.00,99.30
3011.00,99.29
3010.00,99.29
3009.00,99.29
3008.00,99.29
3007.00,99.29
3006.00,99.29
3005.00,99.29
3004.00,99.29
3003.00,99.29
3002.00,99.30
3001.00,99.30
3000.00,99.31
2999.00,99.30
2998.00,99.30
2997.00,99.30
2996.00,99.30
2995.00,99.30
2994.00,99.29
2993.00,99.29
2992.00,99.29
2991.00,99.29
2990.00,99.29
2989.00,99.30
2988.00,99.30
2987.00,99.30
2986.00,99.29
2985.00,99.29
2984.00,99.30
2983.00,99.30
2982.00,99.31
2981.00,99.31
2980.00,99.31
2979.00,99.30
2978.00,99.30
2977.00,99.30
2976.00,99.30
2975.00,99.30
2974.00,99.29
2973.00,99.29
2972.00,99.29
2971.00,99.29
2970.00,99.29
2969.00,99.30
2968.00,99.30
2967.00,99.30
2966.00,99.29
2965.00,99.29
2964.00,99.29
2963.00,99.30
2962.00,99.30
2961.00,99.30
2960.00,99.31
2959.00,99.31
2958.00,99.31
2957.00,99.31
2956.00,99.30
2955.00,99.30
2954.00,99.30
2953.00,99.30
2952.00,99.31
2951.00,99.31
2950.00,99.32
2949.00,99.32
2948.00,99.31
2947.00,99.31
2946.00,99.31
2945.00,99.31
2944.00,99.31
2943.00,99.31
2942.00,99.31
2941.00,99.31
2940.00,99.32
2939.00,99.33
2938.00,99.33
2937.00,99.34
2936.00,99.34
2935.00,99.34
2934.00,99.34
2933.00,99.34
2932.00,99.35
2931.00,99.35
2930.00,99.36
2929.00,99.36
2928.00,99.36
2927.00,99.36
2926.00,99.37
2925.00,99.38
2924.00,99.39
2923.00,99.41
2922.00,99.42
2921.00,99.43
2920.00,99.43
2919.00,99.44
2918.00,99.44
2917.00,99.44
2916.00,99.43
2915.00,99.41
2914.00,99.40
2913.00,99.38
2912.00,99.37
2911.00,99.35
2910.00,99.34
2909.00,99.34
2908.00,99.34
2907.00,99.34
2906.00,99.33
2905.00,99.33
2904.00,99.32
2903.00,99.32
2902.00,99.32
2901.00,99.32
2900.00,99.33
2899.00,99.33
2898.00,99.33
2897.00,99.33
2896.00,99.32
2895.00,99.32
2894.00,99.33
2893.00,99.33
2892.00,99.34
2891.00,99.33
2890.00,99.33
2889.00,99.33
2888.00,99.33
2887.00,99.33
2886.00,99.33
2885.00,99.33
2884.00,99.33
2883.00,99.32
2882.00,99.33
2881.00,99.33
2880.00,99.33
2879.00,99.33
2878.00,99.34
2877.00,99.34
2876.00,99.34
2875.00,99.34
2874.00,99.34
2873.00,99.33
2872.00,99.33
2871.00,99.32
2870.00,99.31
2869.00,99.31
2868.00,99.32
2867.00,99.32
2866.00,99.33
2865.00,99.33
2864.00,99.33
2863.00,99.34
2862.00,99.34
2861.00,99.35
2860.00,99.35
2859.00,99.35
2858.00,99.35
2857.00,99.35
2856.00,99.36
2855.00,99.37
2854.00,99.38
2853.00,99.40
2852.00,99.41
2851.00,99.42
2850.00,99.42
2849.00,99.41
2848.00,99.40
2847.00,99.39
2846.00,99.37
2845.00,99.36
2844.00,99.35
2843.00,99.34
2842.00,99.33
2841.00,99.33
2840.00,99.33
2839.00,99.33
2838.00,99.33
2837.00,99.33
2836.00,99.33
2835.00,99.34
2834.00,99.35
2833.00,99.35
2832.00,99.34
2831.00,99.34
2830.00,99.33
2829.00,99.33
2828.00,99.33
2827.00,99.33
2826.00,99.33
2825.00,99.33
2824.00,99.33
2823.00,99.33
2822.00,99.34
2821.00,99.34
2820.00,99.34
2819.00,99.34
2818.00,99.34
2817.00,99.34
2816.00,99.34
2815.00,99.34
2814.00,99.34
2813.00,99.34
2812.00,99.34
2811.00,99.34
2810.00,99.34
2809.00,99.34
2808.00,99.34
2807.00,99.34
2806.00,99.34
2805.00,99.35
2804.00,99.35
2803.00,99.34
2802.00,99.34
2801.00,99.34
2800.00,99.34
2799.00,99.34
2798.00,99.35
2797.00,99.35
2796.00,99.35
2795.00,99.35
2794.00,99.35
2793.00,99.35
2792.00,99.35
2791.00,99.35
2790.00,99.35
2789.00,99.35
2788.00,99.35
2787.00,99.35
2786.00,99.35
2785.00,99.34
2784.00,99.34
2783.00,99.34
2782.00,99.33
2781.00,99.33
2780.00,99.34
2779.00,99.34
2778.00,99.35
2777.00,99.35
2776.00,99.35
2775.00,99.35
2774.00,99.35
2773.00,99.35
2772.00,99.35
2771.00,99.35
2770.00,99.35
2769.00,99.35
2768.00,99.35
2767.00,99.35
2766.00,99.36
2765.00,99.36
2764.00,99.36
2763.00,99.36
2762.00,99.36
2761.00,99.36
2760.00,99.36
2759.00,99.36
2758.00,99.36
2757.00,99.35
2756.00,99.35
2755.00,99.34
2754.00,99.34
2753.00,99.35
2752.00,99.35
2751.00,99.35
2750.00,99.35
2749.00,99.36
2748.00,99.36
2747.00,99.35
2746.00,99.35
2745.00,99.35
2744.00,99.35
2743.00,99.35
2742.00,99.35
2741.00,99.35
2740.00,99.35
2739.00,99.35
2738.00,99.35
2737.00,99.35
2736.00,99.35
2735.00,99.35
2734.00,99.35
2733.00,99.36
2732.00,99.36
2731.00,99.36
2730.00,99.36
2729.00,99.36
2728.00,99.36
2727.00,99.36
2726.00,99.37
2725.00,99.37
2724.00,99.37
2723.00,99.37
2722.00,99.37
2721.00,99.37
2720.00,99.36
2719.00,99.36
2718.00,99.36
2717.00,99.37
2716.00,99.37
2715.00,99.37
2714.00,99.37
2713.00,99.38
2712.00,99.37
2711.00,99.37
2710.00,99.37
2709.00,99.37
2708.00,99.37
2707.00,99.37
2706.00,99.37
2705.00,99.37
2704.00,99.37
2703.00,99.37
2702.00,99.37
2701.00,99.38
2700.00,99.38
2699.00,99.37
2698.00,99.37
2697.00,99.37
2696.00,99.37
2695.00,99.37
2694.00,99.37
2693.00,99.38
2692.00,99.38
2691.00,99.38
2690.00,99.38
2689.00,99.38
2688.00,99.37
2687.00,99.37
2686.00,99.36
2685.00,99.37
2684.00,99.37
2683.00,99.37
2682.00,99.38
2681.00,99.38
2680.00,99.38
2679.00,99.39
2678.00,99.39
2677.00,99.39
2676.00,99.39
2675.00,99.39
2674.00,99.39
2673.00,99.39
2672.00,99.39
2671.00,99.38
2670.00,99.39
2669.00,99.39
2668.00,99.39
2667.00,99.39
2666.00,99.39
2665.00,99.38
2664.00,99.38
2663.00,99.38
2662.00,99.38
2661.00,99.38
2660.00,99.38
2659.00,99.38
2658.00,99.39
2657.00,99.39
2656.00,99.39
2655.00,99.39
2654.00,99.39
2653.00,99.39
2652.00,99.39
2651.00,99.39
2650.00,99.39
2649.00,99.38
2648.00,99.38
2647.00,99.38
2646.00,99.38
2645.00,99.39
2644.00,99.39
2643.00,99.39
2642.00,99.40
2641.00,99.40
2640.00,99.39
2639.00,99.39
2638.00,99.39
2637.00,99.39
2636.00,99.39
2635.00,99.39
2634.00,99.39
2633.00,99.40
2632.00,99.40
2631.00,99.40
2630.00,99.40
2629.00,99.40
2628.00,99.40
2627.00,99.40
2626.00,99.40
2625.00,99.40
2624.00,99.40
2623.00,99.40
2622.00,99.40
2621.00,99.40
2620.00,99.40
2619.00,99.40
2618.00,99.40
2617.00,99.40
2616.00,99.40
2615.00,99.40
2614.00,99.40
2613.00,99.40
2612.00,99.40
2611.00,99.40
2610.00,99.41
2609.00,99.41
2608.00,99.41
2607.00,99.41
2606.00,99.40
2605.00,99.40
2604.00,99.40
2603.00,99.40
2602.00,99.40
2601.00,99.41
2600.00,99.41
2599.00,99.41
2598.00,99.41
2597.00,99.42
2596.00,99.41
2595.00,99.41
2594.00,99.41
2593.00,99.40
2592.00,99.40
2591.00,99.39
2590.00,99.39
2589.00,99.40
2588.00,99.40
2587.00,99.41
2586.00,99.41
2585.00,99.41
2584.00,99.41
2583.00,99.41
2582.00,99.41
2581.00,99.41
2580.00,99.42
2579.00,99.42
2578.00,99.42
2577.00,99.42
2576.00,99.42
2575.00,99.41
2574.00,99.42
2573.00,99.42
2572.00,99.42
2571.00,99.41
2570.00,99.41
2569.00,99.42
2568.00,99.42
2567.00,99.42
2566.00,99.42
2565.00,99.41
2564.00,99.41
2563.00,99.41
2562.00,99.42
2561.00,99.42
2560.00,99.42
2559.00,99.42
2558.00,99.42
2557.00,99.42
2556.00,99.43
2555.00,99.43
2554.00,99.43
2553.00,99.43
2552.00,99.43
2551.00,99.43
2550.00,99.43
2549.00,99.44
2548.00,99.44
2547.00,99.44
2546.00,99.44
2545.00,99.43
2544.00,99.43
2543.00,99.43
2542.00,99.43
2541.00,99.44
2540.00,99.44
2539.00,99.44
2538.00,99.44
2537.00,99.44
2536.00,99.44
2535.00,99.43
2534.00,99.44
2533.00,99.44
2532.00,99.44
2531.00,99.44
2530.00,99.44
2529.00,99.44
2528.00,99.44
2527.00,99.44
2526.00,99.44
2525.00,99.44
2524.00,99.44
2523.00,99.44
2522.00,99.44
2521.00,99.44
2520.00,99.44
2519.00,99.44
2518.00,99.44
2517.00,99.44
2516.00,99.43
2515.00,99.43
2514.00,99.43
2513.00,99.44
2512.00,99.44
2511.00,99.44
2510.00,99.44
2509.00,99.45
2508.00,99.45
2507.00,99.45
2506.00,99.45
2505.00,99.44
2504.00,99.44
2503.00,99.45
2502.00,99.45
2501.00,99.45
2500.00,99.45
2499.00,99.44
2498.00,99.44
2497.00,99.45
2496.00,99.45
2495.00,99.46
2494.00,99.46
2493.00,99.45
2492.00,99.45
2491.00,99.44
2490.00,99.45
2489.00,99.46
2488.00,99.46
2487.00,99.46
2486.00,99.47
2485.00,99.46
2484.00,99.46
2483.00,99.46
2482.00,99.46
2481.00,99.46
2480.00,99.46
2479.00,99.46
2478.00,99.46
2477.00,99.46
2476.00,99.46
2475.00,99.46
2474.00,99.46
2473.00,99.46
2472.00,99.45
2471.00,99.45
2470.00,99.46
2469.00,99.46
2468.00,99.47
2467.00,99.47
2466.00,99.47
2465.00,99.46
2464.00,99.46
2463.00,99.46
2462.00,99.47
2461.00,99.47
2460.00,99.47
2459.00,99.47
2458.00,99.46
2457.00,99.46
2456.00,99.46
2455.00,99.46
2454.00,99.47
2453.00,99.47
2452.00,99.47
2451.00,99.47
2450.00,99.46
2449.00,99.46
2448.00,99.46
2447.00,99.46
2446.00,99.47
2445.00,99.48
2444.00,99.48
2443.00,99.48
2442.00,99.48
2441.00,99.48
2440.00,99.47
2439.00,99.47
2438.00,99.47
2437.00,99.47
2436.00,99.46
2435.00,99.46
2434.00,99.47
2433.00,99.47
2432.00,99.47
2431.00,99.47
2430.00,99.48
2429.00,99.48
2428.00,99.48
2427.00,99.48
2426.00,99.49
2425.00,99.49
2424.00,99.48
2423.00,99.48
2422.00,99.48
2421.00,99.48
2420.00,99.48
2419.00,99.48
2418.00,99.49
2417.00,99.49
2416.00,99.49
2415.00,99.49
2414.00,99.49
2413.00,99.49
2412.00,99.49
2411.00,99.49
2410.00,99.49
2409.00,99.49
2408.00,99.49
2407.00,99.48
2406.00,99.48
2405.00,99.49
2404.00,99.48
2403.00,99.48
2402.00,99.48
2401.00,99.49
2400.00,99.49
2399.00,99.49
2398.00,99.49
2397.00,99.49
2396.00,99.49
2395.00,99.49
2394.00,99.49
2393.00,99.49
2392.00,99.49
2391.00,99.50
2390.00,99.51
2389.00,99.51
2388.00,99.51
2387.00,99.52
2386.00,99.53
2385.00,99.54
2384.00,99.55
2383.00,99.56
2382.00,99.56
2381.00,99.57
2380.00,99.57
2379.00,99.56
2378.00,99.55
2377.00,99.54
2376.00,99.53
2375.00,99.53
2374.00,99.54
2373.00,99.55
2372.00,99.56
2371.00,99.56
2370.00,99.58
2369.00,99.59
2368.00,99.59
2367.00,99.59
2366.00,99.59
2365.00,99.58
2364.00,99.58
2363.00,99.57
2362.00,99.59
2361.00,99.63
2360.00,99.66
2359.00,99.68
2358.00,99.68
2357.00,99.67
2356.00,99.65
2355.00,99.63
2354.00,99.60
2353.00,99.58
2352.00,99.58
2351.00,99.61
2350.00,99.64
2349.00,99.65
2348.00,99.64
2347.00,99.65
2346.00,99.66
2345.00,99.67
2344.00,99.69
2343.00,99.71
2342.00,99.73
2341.00,99.73
2340.00,99.73
2339.00,99.71
2338.00,99.70
2337.00,99.67
2336.00,99.65
2335.00,99.65
2334.00,99.65
2333.00,99.64
2332.00,99.65
2331.00,99.66
2330.00,99.66
2329.00,99.66
2328.00,99.67
2327.00,99.68
2326.00,99.69
2325.00,99.70
2324.00,99.70
2323.00,99.70
2322.00,99.70
2321.00,99.69
2320.00,99.69
2319.00,99.68
2318.00,99.67
2317.00,99.66
2316.00,99.65
2315.00,99.65
2314.00,99.65
2313.00,99.65
2312.00,99.64
2311.00,99.64
2310.00,99.63
2309.00,99.63
2308.00,99.62
2307.00,99.62
2306.00,99.62
2305.00,99.61
2304.00,99.60
2303.00,99.60
2302.00,99.60
2301.00,99.60
2300.00,99.59
2299.00,99.59
2298.00,99.58
2297.00,99.57
2296.00,99.56
2295.00,99.56
2294.00,99.56
2293.00,99.56
2292.00,99.55
2291.00,99.55
2290.00,99.55
2289.00,99.55
2288.00,99.55
2287.00,99.55
2286.00,99.55
2285.00,99.55
2284.00,99.54
2283.00,99.54
2282.00,99.54
2281.00,99.54
2280.00,99.54
2279.00,99.54
2278.00,99.54
2277.00,99.54
2276.00,99.53
2275.00,99.54
2274.00,99.54
2273.00,99.55
2272.00,99.55
2271.00,99.55
2270.00,99.55
2269.00,99.56
2268.00,99.56
2267.00,99.56
2266.00,99.57
2265.00,99.57
2264.00,99.56
2263.00,99.56
2262.00,99.56
2261.00,99.55
2260.00,99.55
2259.00,99.55
2258.00,99.56
2257.00,99.56
2256.00,99.56
2255.00,99.56
2254.00,99.56
2253.00,99.56
2252.00,99.56
2251.00,99.57
2250.00,99.57
2249.00,99.56
2248.00,99.56
2247.00,99.56
2246.00,99.56
2245.00,99.56
2244.00,99.56
2243.00,99.56
2242.00,99.57
2241.00,99.57
2240.00,99.57
2239.00,99.57
2238.00,99.58
2237.00,99.58
2236.00,99.58
2235.00,99.58
2234.00,99.58
2233.00,99.57
2232.00,99.57
2231.00,99.57
2230.00,99.57
2229.00,99.57
2228.00,99.57
2227.00,99.57
2226.00,99.57
2225.00,99.57
2224.00,99.56
2223.00,99.57
2222.00,99.57
2221.00,99.57
2220.00,99.58
2219.00,99.58
2218.00,99.59
2217.00,99.59
2216.00,99.59
2215.00,99.58
2214.00,99.58
2213.00,99.57
2212.00,99.57
2211.00,99.57
2210.00,99.57
2209.00,99.57
2208.00,99.57
2207.00,99.57
2206.00,99.57
2205.00,99.58
2204.00,99.58
2203.00,99.58
2202.00,99.58
2201.00,99.58
2200.00,99.58
2199.00,99.58
2198.00,99.58
2197.00,99.58
2196.00,99.58
2195.00,99.58
2194.00,99.59
2193.00,99.59
2192.00,99.59
2191.00,99.59
2190.00,99.60
2189.00,99.60
2188.00,99.60
2187.00,99.60
2186.00,99.60
2185.00,99.60
2184.00,99.59
2183.00,99.59
2182.00,99.59
2181.00,99.59
2180.00,99.59
2179.00,99.59
2178.00,99.58
2177.00,99.58
2176.00,99.58
2175.00,99.58
2174.00,99.59
2173.00,99.59
2172.00,99.59
2171.00,99.59
2170.00,99.59
2169.00,99.59
2168.00,99.59
2167.00,99.59
2166.00,99.60
2165.00,99.60
2164.00,99.60
2163.00,99.60
2162.00,99.61
2161.00,99.60
2160.00,99.60
2159.00,99.60
2158.00,99.60
2157.00,99.60
2156.00,99.60
2155.00,99.60
2154.00,99.60
2153.00,99.60
2152.00,99.60
2151.00,99.60
2150.00,99.60
2149.00,99.60
2148.00,99.60
2147.00,99.60
2146.00,99.60
2145.00,99.61
2144.00,99.61
2143.00,99.61
2142.00,99.62
2141.00,99.61
2140.00,99.61
2139.00,99.61
2138.00,99.61
2137.00,99.61
2136.00,99.61
2135.00,99.61
2134.00,99.61
2133.00,99.62
2132.00,99.61
2131.00,99.61
2130.00,99.61
2129.00,99.61
2128.00,99.61
2127.00,99.61
2126.00,99.62
2125.00,99.62
2124.00,99.61
2123.00,99.61
2122.00,99.62
2121.00,99.62
2120.00,99.62
2119.00,99.62
2118.00,99.63
2117.00,99.63
2116.00,99.63
2115.00,99.63
2114.00,99.63
2113.00,99.63
2112.00,99.63
2111.00,99.63
2110.00,99.62
2109.00,99.62
2108.00,99.61
2107.00,99.61
2106.00,99.61
2105.00,99.62
2104.00,99.62
2103.00,99.62
2102.00,99.63
2101.00,99.63
2100.00,99.63
2099.00,99.62
2098.00,99.62
2097.00,99.61
2096.00,99.61
2095.00,99.62
2094.00,99.63
2093.00,99.63
2092.00,99.63
2091.00,99.63
2090.00,99.63
2089.00,99.63
2088.00,99.63
2087.00,99.63
2086.00,99.63
2085.00,99.64
2084.00,99.64
2083.00,99.64
2082.00,99.64
2081.00,99.64
2080.00,99.64
2079.00,99.65
2078.00,99.65
2077.00,99.64
2076.00,99.64
2075.00,99.63
2074.00,99.64
2073.00,99.64
2072.00,99.64
2071.00,99.65
2070.00,99.65
2069.00,99.65
2068.00,99.64
2067.00,99.64
2066.00,99.64
2065.00,99.64
2064.00,99.64
2063.00,99.64
2062.00,99.65
2061.00,99.64
2060.00,99.64
2059.00,99.64
2058.00,99.65
2057.00,99.65
2056.00,99.65
2055.00,99.65
2054.00,99.65
2053.00,99.65
2052.00,99.64
2051.00,99.64
2050.00,99.64
2049.00,99.64
2048.00,99.64
2047.00,99.64
2046.00,99.65
2045.00,99.66
2044.00,99.65
2043.00,99.65
2042.00,99.65
2041.00,99.65
2040.00,99.65
2039.00,99.65
2038.00,99.65
2037.00,99.65
2036.00,99.65
2035.00,99.65
2034.00,99.66
2033.00,99.66
2032.00,99.65
2031.00,99.66
2030.00,99.66
2029.00,99.65
2028.00,99.65
2027.00,99.65
2026.00,99.65
2025.00,99.66
2024.00,99.66
2023.00,99.66
2022.00,99.66
2021.00,99.66
2020.00,99.66
2019.00,99.66
2018.00,99.66
2017.00,99.66
2016.00,99.66
2015.00,99.66
2014.00,99.67
2013.00,99.67
2012.00,99.66
2011.00,99.66
2010.00,99.67
2009.00,99.67
2008.00,99.67
2007.00,99.68
2006.00,99.69
2005.00,99.68
2004.00,99.68
2003.00,99.67
2002.00,99.67
2001.00,99.67
2000.00,99.66
1999.00,99.66
1998.00,99.67
1997.00,99.67
1996.00,99.67
1995.00,99.66
1994.00,99.65
1993.00,99.64
1992.00,99.65
1991.00,99.66
1990.00,99.67
1989.00,99.68
1988.00,99.68
1987.00,99.68
1986.00,99.68
1985.00,99.68
1984.00,99.68
1983.00,99.68
1982.00,99.67
1981.00,99.67
1980.00,99.68
1979.00,99.68
1978.00,99.68
1977.00,99.68
1976.00,99.68
1975.00,99.68
1974.00,99.69
1973.00,99.69
1972.00,99.69
1971.00,99.68
1970.00,99.67
1969.00,99.65
1968.00,99.65
1967.00,99.66
1966.00,99.68
1965.00,99.69
1964.00,99.70
1963.00,99.69
1962.00,99.69
1961.00,99.69
1960.00,99.69
1959.00,99.69
1958.00,99.69
1957.00,99.69
1956.00,99.69
1955.00,99.69
1954.00,99.69
1953.00,99.68
1952.00,99.69
1951.00,99.69
1950.00,99.70
1949.00,99.70
1948.00,99.70
1947.00,99.70
1946.00,99.69
1945.00,99.66
1944.00,99.64
1943.00,99.65
1942.00,99.67
1941.00,99.69
1940.00,99.71
1939.00,99.72
1938.00,99.71
1937.00,99.70
1936.00,99.70
1935.00,99.71
1934.00,99.70
1933.00,99.69
1932.00,99.69
1931.00,99.70
1930.00,99.70
1929.00,99.70
1928.00,99.70
1927.00,99.71
1926.00,99.71
1925.00,99.68
1924.00,99.67
1923.00,99.69
1922.00,99.72
1921.00,99.71
1920.00,99.69
1919.00,99.68
1918.00,99.70
1917.00,99.71
1916.00,99.72
1915.00,99.74
1914.00,99.75
1913.00,99.73
1912.00,99.70
1911.00,99.70
1910.00,99.70
1909.00,99.69
1908.00,99.68
1907.00,99.70
1906.00,99.73
1905.00,99.71
1904.00,99.69
1903.00,99.71
1902.00,99.72
1901.00,99.71
1900.00,99.69
1899.00,99.70
1898.00,99.72
1897.00,99.70
1896.00,99.68
1895.00,99.70
1894.00,99.72
1893.00,99.71
1892.00,99.67
1891.00,99.65
1890.00,99.66
1889.00,99.66
1888.00,99.67
1887.00,99.71
1886.00,99.73
1885.00,99.72
1884.00,99.70
1883.00,99.72
1882.00,99.75
1881.00,99.73
1880.00,99.72
1879.00,99.73
1878.00,99.75
1877.00,99.75
1876.00,99.73
1875.00,99.74
1874.00,99.76
1873.00,99.75
1872.00,99.70
1871.00,99.66
1870.00,99.64
1869.00,99.62
1868.00,99.61
1867.00,99.67
1866.00,99.74
1865.00,99.75
1864.00,99.73
1863.00,99.74
1862.00,99.76
1861.00,99.74
1860.00,99.70
1859.00,99.71
1858.00,99.73
1857.00,99.73
1856.00,99.71
1855.00,99.72
1854.00,99.74
1853.00,99.74
1852.00,99.74
1851.00,99.75
1850.00,99.77
1849.00,99.76
1848.00,99.74
1847.00,99.72
1846.00,99.70
1845.00,99.69
1844.00,99.70
1843.00,99.76
1842.00,99.80
1841.00,99.80
1840.00,99.78
1839.00,99.76
1838.00,99.75
1837.00,99.74
1836.00,99.73
1835.00,99.75
1834.00,99.76
1833.00,99.73
1832.00,99.66
1831.00,99.60
1830.00,99.59
1829.00,99.63
1828.00,99.68
1827.00,99.72
1826.00,99.74
1825.00,99.76
1824.00,99.75
1823.00,99.76
1822.00,99.77
1821.00,99.77
1820.00,99.74
1819.00,99.74
1818.00,99.77
1817.00,99.78
1816.00,99.75
1815.00,99.74
1814.00,99.76
1813.00,99.77
1812.00,99.72
1811.00,99.71
1810.00,99.75
1809.00,99.77
1808.00,99.74
1807.00,99.74
1806.00,99.78
1805.00,99.77
1804.00,99.74
1803.00,99.74
1802.00,99.78
1801.00,99.79
1800.00,99.76
1799.00,99.77
1798.00,99.81
1797.00,99.81
1796.00,99.79
1795.00,99.81
1794.00,99.87
1793.00,99.88
1792.00,99.83
1791.00,99.81
1790.00,99.84
1789.00,99.84
1788.00,99.81
1787.00,99.81
1786.00,99.84
1785.00,99.83
1784.00,99.79
1783.00,99.77
1782.00,99.77
1781.00,99.79
1780.00,99.80
1779.00,99.80
1778.00,99.81
1777.00,99.81
1776.00,99.80
1775.00,99.79
1774.00,99.79
1773.00,99.81
1772.00,99.80
1771.00,99.78
1770.00,99.81
1769.00,99.87
1768.00,99.89
1767.00,99.86
1766.00,99.84
1765.00,99.84
1764.00,99.82
1763.00,99.76
1762.00,99.75
1761.00,99.80
1760.00,99.81
1759.00,99.80
1758.00,99.80
1757.00,99.85
1756.00,99.90
1755.00,99.91
1754.00,99.95
1753.00,100.07
1752.00,100.15
1751.00,100.09
1750.00,99.97
1749.00,99.89
1748.00,99.86
1747.00,99.82
1746.00,99.79
1745.00,99.81
1744.00,99.82
1743.00,99.80
1742.00,99.81
1741.00,99.85
1740.00,99.87
1739.00,99.86
1738.00,99.88
1737.00,99.95
1736.00,100.07
1735.00,100.17
1734.00,100.17
1733.00,100.08
1732.00,99.97
1731.00,99.90
1730.00,99.86
1729.00,99.83
1728.00,99.82
1727.00,99.81
1726.00,99.81
1725.00,99.81
1724.00,99.80
1723.00,99.83
1722.00,99.88
1721.00,99.85
1720.00,99.76
1719.00,99.75
1718.00,99.86
1717.00,99.89
1716.00,99.84
1715.00,99.88
1714.00,99.96
1713.00,99.93
1712.00,99.84
1711.00,99.84
1710.00,99.88
1709.00,99.87
1708.00,99.79
1707.00,99.76
1706.00,99.80
1705.00,99.80
1704.00,99.79
1703.00,99.89
1702.00,100.07
1701.00,100.14
1700.00,100.04
1699.00,99.95
1698.00,99.89
1697.00,99.79
1696.00,99.68
1695.00,99.71
1694.00,99.83
1693.00,99.91
1692.00,99.89
1691.00,99.87
1690.00,99.88
1689.00,99.91
1688.00,99.89
1687.00,99.80
1686.00,99.68
1685.00,99.62
1684.00,99.69
1683.00,99.79
1682.00,99.82
1681.00,99.86
1680.00,99.91
1679.00,99.93
1678.00,99.91
1677.00,99.94
1676.00,100.00
1675.00,99.98
1674.00,99.90
1673.00,99.86
1672.00,99.89
1671.00,99.90
1670.00,99.85
1669.00,99.83
1668.00,99.86
1667.00,99.88
1666.00,99.85
1665.00,99.82
1664.00,99.85
1663.00,99.87
1662.00,99.84
1661.00,99.85
1660.00,99.91
1659.00,99.93
1658.00,99.88
1657.00,99.85
1656.00,99.83
1655.00,99.79
1654.00,99.74
1653.00,99.72
1652.00,99.73
1651.00,99.74
1650.00,99.79
1649.00,99.81
1648.00,99.85
1647.00,99.89
1646.00,99.95
1645.00,99.96
1644.00,99.95
1643.00,99.95
1642.00,99.95
1641.00,99.95
1640.00,99.92
1639.00,99.89
1638.00,99.87
1637.00,99.89
1636.00,99.90
1635.00,99.89
1634.00,99.88
1633.00,99.88
1632.00,99.90
1631.00,99.92
1630.00,99.91
1629.00,99.86
1628.00,99.84
1627.00,99.85
1626.00,99.84
1625.00,99.84
1624.00,99.86
1623.00,99.88
1622.00,99.85
1621.00,99.83
1620.00,99.86
1619.00,99.88
1618.00,99.85
1617.00,99.82
1616.00,99.85
1615.00,99.88
1614.00,99.86
1613.00,99.84
1612.00,99.88
1611.00,99.92
1610.00,99.87
1609.00,99.83
1608.00,99.85
1607.00,99.87
1606.00,99.83
1605.00,99.82
1604.00,99.86
1603.00,99.87
1602.00,99.83
1601.00,99.83
1600.00,99.87
1599.00,99.89
1598.00,99.85
1597.00,99.82
1596.00,99.83
1595.00,99.85
1594.00,99.82
1593.00,99.82
1592.00,99.85
1591.00,99.88
1590.00,99.85
1589.00,99.82
1588.00,99.85
1587.00,99.87
1586.00,99.84
1585.00,99.82
1584.00,99.88
1583.00,99.89
1582.00,99.83
1581.00,99.79
1580.00,99.81
1579.00,99.78
1578.00,99.70
1577.00,99.69
1576.00,99.78
1575.00,99.84
1574.00,99.83
1573.00,99.83
1572.00,99.86
1571.00,99.85
1570.00,99.80
1569.00,99.82
1568.00,99.93
1567.00,99.98
1566.00,99.93
1565.00,99.92
1564.00,99.97
1563.00,99.95
1562.00,99.87
1561.00,99.87
1560.00,99.98
1559.00,100.00
1558.00,99.93
1557.00,99.93
1556.00,100.05
1555.00,100.11
1554.00,100.10
1553.00,100.11
1552.00,100.11
1551.00,100.08
1550.00,100.05
1549.00,100.05
1548.00,100.12
1547.00,100.15
1546.00,100.11
1545.00,100.06
1544.00,100.04
1543.00,100.04
1542.00,100.05
1541.00,100.04
1540.00,100.03
1539.00,100.01
1538.00,99.98
1537.00,99.95
1536.00,99.95
1535.00,99.95
1534.00,99.93
1533.00,99.92
1532.00,99.93
1531.00,99.95
1530.00,99.97
1529.00,99.96
1528.00,99.95
1527.00,99.98
1526.00,100.02
1525.00,100.03
1524.00,100.00
1523.00,99.95
1522.00,99.93
1521.00,99.91
1520.00,99.90
1519.00,99.90
1518.00,99.92
1517.00,99.95
1516.00,99.96
1515.00,99.98
1514.00,100.05
1513.00,100.09
1512.00,100.05
1511.00,100.02
1510.00,100.06
1509.00,100.14
1508.00,100.17
1507.00,100.17
1506.00,100.17
1505.00,100.15
1504.00,100.07
1503.00,100.00
1502.00,99.98
1501.00,99.97
1500.00,99.92
1499.00,99.89
1498.00,99.97
1497.00,100.07
1496.00,100.07
1495.00,100.04
1494.00,100.06
1493.00,100.08
1492.00,100.05
1491.00,100.03
1490.00,100.04
1489.00,100.00
1488.00,99.92
1487.00,99.92
1486.00,99.96
1485.00,99.95
1484.00,99.93
1483.00,99.93
1482.00,99.95
1481.00,99.96
1480.00,99.95
1479.00,99.97
1478.00,100.01
1477.00,100.01
1476.00,100.02
1475.00,100.12
1474.00,100.24
1473.00,100.28
1472.00,100.21
1471.00,100.13
1470.00,100.09
1469.00,100.05
1468.00,100.00
1467.00,99.98
1466.00,100.01
1465.00,100.05
1464.00,100.05
1463.00,100.03
1462.00,100.03
1461.00,100.03
1460.00,100.00
1459.00,99.97
1458.00,100.04
1457.00,100.17
1456.00,100.22
1455.00,100.15
1454.00,100.07
1453.00,100.05
1452.00,100.04
1451.00,100.00
1450.00,100.00
1449.00,100.01
1448.00,99.99
1447.00,99.93
1446.00,99.90
1445.00,99.94
1444.00,99.96
1443.00,99.91
1442.00,99.90
1441.00,99.96
1440.00,99.99
1439.00,99.97
1438.00,99.99
1437.00,100.07
1436.00,100.09
1435.00,100.01
1434.00,99.96
1433.00,99.98
1432.00,99.97
1431.00,99.90
1430.00,99.87
1429.00,99.92
1428.00,99.96
1427.00,99.95
1426.00,99.92
1425.00,99.99
1424.00,100.04
1423.00,99.98
1422.00,99.91
1421.00,99.93
1420.00,99.96
1419.00,99.93
1418.00,99.94
1417.00,100.03
1416.00,100.05
1415.00,99.98
1414.00,99.92
1413.00,99.94
1412.00,99.97
1411.00,99.92
1410.00,99.89
1409.00,99.92
1408.00,99.95
1407.00,99.91
1406.00,99.87
1405.00,99.90
1404.00,99.93
1403.00,99.91
1402.00,99.89
1401.00,99.92
1400.00,99.96
1399.00,99.95
1398.00,99.93
1397.00,99.92
1396.00,99.92
1395.00,99.88
1394.00,99.85
1393.00,99.88
1392.00,99.93
1391.00,99.90
1390.00,99.86
1389.00,99.85
1388.00,99.88
1387.00,99.89
1386.00,99.88
1385.00,99.89
1384.00,99.89
1383.00,99.87
1382.00,99.85
1381.00,99.86
1380.00,99.87
1379.00,99.87
1378.00,99.86
1377.00,99.85
1376.00,99.85
1375.00,99.83
1374.00,99.82
1373.00,99.83
1372.00,99.86
1371.00,99.87
1370.00,99.86
1369.00,99.85
1368.00,99.87
1367.00,99.88
1366.00,99.85
1365.00,99.83
1364.00,99.82
1363.00,99.82
1362.00,99.82
1361.00,99.84
1360.00,99.87
1359.00,99.87
1358.00,99.86
1357.00,99.85
1356.00,99.84
1355.00,99.83
1354.00,99.82
1353.00,99.83
1352.00,99.83
1351.00,99.83
1350.00,99.81
1349.00,99.81
1348.00,99.82
1347.00,99.82
1346.00,99.81
1345.00,99.82
1344.00,99.84
1343.00,99.85
1342.00,99.85
1341.00,99.87
1340.00,99.89
1339.00,99.89
1338.00,99.86
1337.00,99.85
1336.00,99.85
1335.00,99.85
1334.00,99.84
1333.00,99.85
1332.00,99.85
1331.00,99.84
1330.00,99.82
1329.00,99.81
1328.00,99.82
1327.00,99.81
1326.00,99.80
1325.00,99.81
1324.00,99.83
1323.00,99.83
1322.00,99.82
1321.00,99.82
1320.00,99.83
1319.00,99.83
1318.00,99.83
1317.00,99.83
1316.00,99.85
1315.00,99.85
1314.00,99.84
1313.00,99.84
1312.00,99.84
1311.00,99.82
1310.00,99.80
1309.00,99.80
1308.00,99.82
1307.00,99.83
1306.00,99.83
1305.00,99.84
1304.00,99.85
1303.00,99.84
1302.00,99.81
1301.00,99.80
1300.00,99.80
1299.00,99.79
1298.00,99.78
1297.00,99.79
1296.00,99.80
1295.00,99.80
1294.00,99.78
1293.00,99.79
1292.00,99.80
1291.00,99.79
1290.00,99.78
1289.00,99.78
1288.00,99.79
1287.00,99.79
1286.00,99.78
1285.00,99.78
1284.00,99.79
1283.00,99.79
1282.00,99.77
1281.00,99.77
1280.00,99.77
1279.00,99.76
1278.00,99.75
1277.00,99.77
1276.00,99.79
1275.00,99.79
1274.00,99.77
1273.00,99.77
1272.00,99.78
1271.00,99.77
1270.00,99.76
1269.00,99.76
1268.00,99.76
1267.00,99.74
1266.00,99.72
1265.00,99.72
1264.00,99.72
1263.00,99.71
1262.00,99.69
1261.00,99.69
1260.00,99.70
1259.00,99.71
1258.00,99.70
1257.00,99.71
1256.00,99.72
1255.00,99.72
1254.00,99.71
1253.00,99.72
1252.00,99.74
1251.00,99.73
1250.00,99.73
1249.00,99.73
1248.00,99.74
1247.00,99.72
1246.00,99.70
1245.00,99.70
1244.00,99.72
1243.00,99.72
1242.00,99.72
1241.00,99.73
1240.00,99.74
1239.00,99.73
1238.00,99.71
1237.00,99.71
1236.00,99.71
1235.00,99.70
1234.00,99.68
1233.00,99.68
1232.00,99.70
1231.00,99.70
1230.00,99.70
1229.00,99.70
1228.00,99.72
1227.00,99.72
1226.00,99.71
1225.00,99.71
1224.00,99.72
1223.00,99.71
1222.00,99.69
1221.00,99.69
1220.00,99.69
1219.00,99.68
1218.00,99.67
1217.00,99.68
1216.00,99.68
1215.00,99.67
1214.00,99.66
1213.00,99.66
1212.00,99.67
1211.00,99.66
1210.00,99.65
1209.00,99.66
1208.00,99.67
1207.00,99.67
1206.00,99.65
1205.00,99.65
1204.00,99.66
1203.00,99.64
1202.00,99.63
1201.00,99.63
1200.00,99.63
1199.00,99.62
1198.00,99.60
1197.00,99.60
1196.00,99.61
1195.00,99.60
1194.00,99.59
1193.00,99.60
1192.00,99.61
1191.00,99.59
1190.00,99.57
1189.00,99.57
1188.00,99.57
1187.00,99.56
1186.00,99.54
1185.00,99.54
1184.00,99.55
1183.00,99.55
1182.00,99.54
1181.00,99.54
1180.00,99.55
1179.00,99.54
1178.00,99.51
1177.00,99.51
1176.00,99.51
1175.00,99.50
1174.00,99.48
1173.00,99.49
1172.00,99.50
1171.00,99.50
1170.00,99.49
1169.00,99.49
1168.00,99.51
1167.00,99.51
1166.00,99.50
1165.00,99.50
1164.00,99.50
1163.00,99.49
1162.00,99.48
1161.00,99.48
1160.00,99.50
1159.00,99.49
1158.00,99.47
1157.00,99.47
1156.00,99.48
1155.00,99.47
1154.00,99.45
1153.00,99.46
1152.00,99.49
1151.00,99.49
1150.00,99.47
1149.00,99.47
1148.00,99.49
1147.00,99.48
1146.00,99.46
1145.00,99.44
1144.00,99.41
1143.00,99.38
1142.00,99.36
1141.00,99.38
1140.00,99.41
1139.00,99.42
1138.00,99.40
1137.00,99.40
1136.00,99.41
1135.00,99.41
1134.00,99.39
1133.00,99.39
1132.00,99.40
1131.00,99.39
1130.00,99.36
1129.00,99.35
1128.00,99.35
1127.00,99.33
1126.00,99.31
1125.00,99.32
1124.00,99.34
1123.00,99.34
1122.00,99.32
1121.00,99.31
1120.00,99.31
1119.00,99.29
1118.00,99.28
1117.00,99.29
1116.00,99.31
1115.00,99.30
1114.00,99.28
1113.00,99.27
1112.00,99.27
1111.00,99.25
1110.00,99.23
1109.00,99.24
1108.00,99.26
1107.00,99.24
1106.00,99.21
1105.00,99.20
1104.00,99.20
1103.00,99.17
1102.00,99.15
1101.00,99.16
1100.00,99.18
1099.00,99.17
1098.00,99.15
1097.00,99.14
1096.00,99.15
1095.00,99.13
1094.00,99.10
1093.00,99.10
1092.00,99.10
1091.00,99.07
1090.00,99.04
1089.00,99.04
1088.00,99.06
1087.00,99.06
1086.00,99.03
1085.00,99.02
1084.00,99.03
1083.00,99.02
1082.00,99.01
1081.00,99.02
1080.00,99.03
1079.00,99.01
1078.00,98.98
1077.00,98.98
1076.00,99.00
1075.00,98.98
1074.00,98.96
1073.00,98.97
1072.00,98.99
1071.00,98.98
1070.00,98.95
1069.00,98.96
1068.00,98.97
1067.00,98.95
1066.00,98.93
1065.00,98.94
1064.00,98.98
1063.00,98.96
1062.00,98.93
1061.00,98.92
1060.00,98.93
1059.00,98.91
1058.00,98.88
1057.00,98.87
1056.00,98.88
1055.00,98.85
1054.00,98.81
1053.00,98.83
1052.00,98.87
1051.00,98.86
1050.00,98.82
1049.00,98.79
1048.00,98.77
1047.00,98.72
1046.00,98.68
1045.00,98.70
1044.00,98.75
1043.00,98.76
1042.00,98.74
1041.00,98.75
1040.00,98.77
1039.00,98.76
1038.00,98.74
1037.00,98.76
1036.00,98.78
1035.00,98.74
1034.00,98.67
1033.00,98.65
1032.00,98.63
1031.00,98.57
1030.00,98.53
1029.00,98.56
1028.00,98.63
1027.00,98.64
1026.00,98.62
1025.00,98.63
1024.00,98.64
1023.00,98.60
1022.00,98.54
1021.00,98.53
1020.00,98.54
1019.00,98.51
1018.00,98.50
1017.00,98.55
1016.00,98.61
1015.00,98.57
1014.00,98.48
1013.00,98.46
1012.00,98.49
1011.00,98.48
1010.00,98.44
1009.00,98.44
1008.00,98.43
1007.00,98.36
1006.00,98.28
1005.00,98.27
1004.00,98.29
1003.00,98.26
1002.00,98.22
1001.00,98.27
1000.00,98.34
999.00,98.37
998.00,98.37
997.00,98.42
996.00,98.45
995.00,98.36
994.00,98.20
993.00,98.13
992.00,98.15
991.00,98.15
990.00,98.17
989.00,98.26
988.00,98.33
987.00,98.29
986.00,98.20
985.00,98.20
984.00,98.24
983.00,98.20
982.00,98.11
981.00,98.06
980.00,98.00
979.00,97.86
978.00,97.77
977.00,97.86
976.00,98.03
975.00,98.05
974.00,97.93
973.00,97.86
972.00,97.85
971.00,97.78
970.00,97.71
969.00,97.74
968.00,97.81
967.00,97.74
966.00,97.61
965.00,97.60
964.00,97.67
963.00,97.68
962.00,97.66
961.00,97.74
960.00,97.81
959.00,97.73
958.00,97.61
957.00,97.61
956.00,97.60
955.00,97.41
954.00,97.27
953.00,97.42
952.00,97.67
951.00,97.68
950.00,97.60
949.00,97.76
948.00,97.98
947.00,97.88
946.00,97.56
945.00,97.43
944.00,97.43
943.00,97.26
942.00,97.07
941.00,97.14
940.00,97.20
939.00,96.77
938.00,96.09
937.00,95.88
936.00,96.35
935.00,97.11
934.00,97.95
933.00,98.81
932.00,99.18
931.00,98.66
930.00,97.84
929.00,97.59
928.00,97.62
927.00,97.11
926.00,96.30
925.00,95.98
924.00,96.06
923.00,95.87
922.00,95.62
921.00,95.94
920.00,96.49
919.00,96.50
918.00,96.32
917.00,96.74
916.00,97.03
915.00,96.13
914.00,95.03
913.00,95.38
912.00,96.59
911.00,96.64
910.00,95.59
909.00,95.34
908.00,96.25
907.00,97.16
906.00,97.85
905.00,99.07
904.00,99.52
903.00,97.49
902.00,95.17
901.00,95.62
900.00,97.83
899.00,98.39
898.00,97.07
897.00,96.31
896.00,95.56
895.00,92.90
894.00,90.48
893.00,91.40
892.00,95.29
891.00,98.97
890.00,99.77
889.00,100.61
888.00,100.08
887.00,94.16
886.00,89.51
885.00,91.70
884.00,97.53
883.00,101.93
882.00,102.71
881.00,106.97
880.00,115.53
879.00,115.85
878.00,110.15
877.00,111.58
876.00,122.28
875.00,135.59
874.00,133.14
873.00,155.35
872.00,190.26
871.00,161.97
870.00,125.53
869.00,126.59
868.00,144.46
867.00,145.17
866.00,113.07
865.00,95.25
864.00,74.33
863.00,81.20
862.00,96.99
861.00,71.51
860.00,88.87
859.00,130.02
858.00,174.45
857.00,327.20
856.00,185.17
855.00,405.30
854.00,266.55
853.00,148.20
852.00,92.83
851.00,123.93
850.00,241.77
849.00,400.34
848.00,103.22
847.00,116.47
846.00,297.47
845.00,294.11
844.00,133.01
843.00,264.05
842.00,168.46
841.00,115.25
840.00,93.83
839.00,112.80
838.00,143.85
837.00,192.14
836.00,238.94
835.00,123.03
834.00,81.40
833.00,91.59
832.00,88.36
831.00,95.97
830.00,80.81
829.00,90.63
828.00,296.38
827.00,178.99
826.00,189.74
825.00,591.65
824.00,249.42
823.00,335.35
822.00,273.60
821.00,128.66
820.00,76.12
819.00,212.96
818.00,406.30
817.00,265.81
816.00,237.72
815.00,122.43
814.00,74.36
813.00,163.21
812.00,150.05
811.00,152.63
810.00,160.27
809.00,152.80
808.00,144.06
807.00,119.65
806.00,86.50
805.00,92.32
804.00,31.81
803.00,22.06
802.00,52.48
801.00,37.13
800.00,16.77
799.00,114.81
798.00,336.50
797.00,231.66
796.00,309.85
795.00,205.37
794.00,120.30
793.00,149.83
792.00,192.19
791.00,113.49
790.00,98.72
789.00,111.76
788.00,109.31
787.00,175.06
786.00,131.15
785.00,213.68
784.00,150.70
783.00,176.65
782.00,222.79
781.00,164.09
780.00,79.12
779.00,112.77
778.00,151.56
777.00,138.92
776.00,153.92
775.00,209.76
774.00,235.90
773.00,480.09
772.00,136.11
771.00,289.32
770.00,206.58
769.00,372.09
768.00,395.58
767.00,409.29
766.00,302.37
765.00,180.24
764.00,84.92
763.00,83.16
762.00,78.37
761.00,91.04
760.00,87.49
759.00,107.58
758.00,362.01
757.00,188.79
756.00,25.75
755.00,39.81
754.00,39.79
753.00,36.61
752.00,58.29
751.00,95.90
750.00,186.66
749.00,314.58
748.00,222.23
747.00,293.14
746.00,218.85
745.00,251.23
744.00,24.29
743.00,108.69
742.00,599.18
741.00,397.77
740.00,189.09
739.00,349.09
738.00,189.90
737.00,223.72
736.00,79.63
735.00,147.26
734.00,227.31
733.00,129.25
732.00,76.81
731.00,167.24
730.00,144.61
729.00,164.12
728.00,351.66
727.00,494.82
726.00,308.00
725.00,492.71
724.00,179.21
723.00,132.19
722.00,146.17
721.00,221.46
720.00,420.21
719.00,398.76
718.00,345.43
717.00,737.13
716.00,170.58
715.00,255.49
714.00,387.33
713.00,351.08
712.00,198.98
711.00,249.00
710.00,195.84
709.00,226.92
708.00,297.70
707.00,174.42
706.00,186.93
705.00,119.64
704.00,54.45
703.00,105.23
702.00,242.26
701.00,160.00
700.00,57.06
699.00,197.49
698.00,337.41
697.00,138.03
696.00,72.29
695.00,280.01
694.00,202.78
693.00,143.45
692.00,110.98
691.00,82.60
690.00,116.93
689.00,120.68
688.00,74.41
687.00,111.88
686.00,168.50
685.00,224.15
684.00,243.08
683.00,210.18
682.00,171.16
681.00,202.29
680.00,99.64
679.00,105.73
678.00,108.22
677.00,161.54
676.00,147.85
675.00,439.16
674.00,818.70
673.00,300.13
672.00,102.80
671.00,154.97
670.00,252.38
669.00,64.25
668.00,38.15
667.00,248.97
666.00,172.53
665.00,410.74
664.00,125.36
663.00,225.15
662.00,423.55
661.00,364.67
660.00,104.90
659.00,300.61
658.00,2052.74
657.00,662.98
656.00,261.32
655.00,550.46
654.00,270.29
653.00,375.46
652.00,119.42
651.00,131.94
650.00,177.35
649.00,91.00
648.00,46.94
647.00,83.22
646.00,123.13
645.00,97.28
644.00,61.23
643.00,125.93
642.00,89.56
641.00,95.87
640.00,126.22
639.00,99.13
638.00,96.01
637.00,128.15
636.00,170.97
635.00,186.63
634.00,194.09
633.00,294.78
632.00,127.02
631.00,112.02
630.00,108.06
629.00,112.66
628.00,143.83
627.00,155.36
626.00,155.11
625.00,184.53
624.00,104.19
623.00,100.06
622.00,117.68
621.00,266.89
620.00,92.13
619.00,93.78
618.00,98.28
617.00,104.07
616.00,93.66
615.00,152.89
614.00,150.16
613.00,272.26
612.00,234.05
611.00,326.55
610.00,837.26
609.00,318.61
608.00,115.70
607.00,146.00
606.00,86.92
605.00,110.92
604.00,174.03
603.00,161.84
602.00,137.97
601.00,206.10
600.00,94.18
599.00,72.66
598.00,88.44
597.00,71.73
596.00,65.22
595.00,131.64
594.00,147.78
593.00,150.09
592.00,80.23
591.00,375.69
590.00,191.93
589.00,184.00
588.00,291.48
587.00,278.92
586.00,159.36
585.00,234.89
584.00,118.19
583.00,272.25
582.00,174.09
581.00,270.37
580.00,106.66
579.00,467.19
578.00,216.82
577.00,195.58
576.00,168.99
575.00,555.14
574.00,176.43
573.00,256.23
572.00,433.09
571.00,140.94
570.00,48.39
569.00,243.49
568.00,2109.31
567.00,283.63
566.00,89.45
565.00,180.57
564.00,134.20
563.00,157.71
562.00,267.41
561.00,978.73
560.00,164.35
559.00,458.70
558.00,288.39
557.00,158.93
556.00,98.88
555.00,182.54
554.00,210.62
553.00,143.38
552.00,100.86
551.00,178.35
550.00,328.02
549.00,376.59
548.00,180.11
547.00,322.20
546.00,230.37
545.00,255.31
544.00,156.56
543.00,107.32
542.00,103.99
541.00,124.50
540.00,144.79
539.00,141.05
538.00,156.99
537.00,248.49
536.00,85.39
535.00,176.12
534.00,386.51
533.00,360.40
532.00,161.92
531.00,197.55
530.00,101.63
529.00,91.76
528.00,222.64
527.00,190.33
526.00,184.46
525.00,241.33
524.00,111.83
523.00,168.39
522.00,149.19
521.00,152.07
520.00,178.11
519.00,107.74
518.00,76.36
517.00,74.01
516.00,27.60
515.00,62.74
514.00,120.67
513.00,160.63
512.00,164.60
511.00,179.82
510.00,211.37
509.00,511.59
508.00,151.56
507.00,413.38
506.00,234.42
505.00,241.48
504.00,195.65
503.00,308.58
502.00,476.41
501.00,233.32
500.00,88.03
499.00,101.97
498.00,102.59
497.00,85.86
496.00,70.46
495.00,192.12
494.00,392.86
493.00,267.15
492.00,115.49
491.00,540.02
490.00,483.27
489.00,572.78
488.00,252.05
487.00,410.22
486.00,374.90
485.00,253.47
484.00,74.47
483.00,221.10
482.00,1761.65
481.00,371.08
480.00,110.61
479.00,215.74
478.00,283.14
477.00,572.96
476.00,218.14
475.00,249.74
474.00,148.91
473.00,168.46
472.00,281.83
471.00,185.71
470.00,140.92
469.00,200.07
468.00,475.47
467.00,159.32
466.00,108.12
465.00,151.46
464.00,161.35
463.00,160.95
462.00,154.63
461.00,343.88
460.00,435.08
459.00,283.49
458.00,170.23
457.00,234.64
456.00,219.08
455.00,164.51
454.00,134.94
453.00,142.92
452.00,137.44
451.00,209.24
450.00,271.63
